29,27
29,26
29,26
28,26
27,26
28,27
27,27
27,28
27,28
28,30
28,31
30,34
31,38
33,42
36,63
38,77
43,105
45,121
45,136
46,141
45,137
43,116
41,103
41,94
45,64
53,60
77,49
93,48
108,46
135,43
146,42
159,43
161,44
151,44
138,41
138,41
120,39
112,37
104,35
99,33
87,31
75,31
66,30
67,29
63,29
61,29
54,29
50,29
50,29
50,29
28,36
29,39
29,40
29,42
31,44
31,49
34,56
35,59
35,61
36,64
37,74
38,83
38,84
39,77
39,75
40,74
40,67
40,68
39,60
38,59
37,59
36,62
36,58
36,58
34,52
33,48
33,46
33,44
33,42
32,39
31,34
33,32
38,32
44,33
73,35
87,36
98,37
116,39
121,38
110,37
96,35
85,33
67,31
61,30
48,29
51,28
52,28
51,28
49,27
50,27
27,25
27,26
27,26
27,26
27,27
27,27
27,27
26,26
26,27
26,27
26,28
26,28
27,30
28,33
29,36
29,39
30,40
32,44
33,45
34,47
34,47
34,46
34,43
34,41
33,38
32,37
31,33
30,31
32,30
36,29
38,28
39,28
44,28
48,29
52,29
55,30
57,30
59,29
58,30
55,29
55,29
52,29
45,28
43,28
43,28
42,27
41,26
40,26
38,26
36,26
30,26
29,26
30,26
30,26
30,26
30,26
31,26
31,26
31,26
31,26
31,26
31,27
31,28
31,30
32,35
34,38
36,46
36,50
36,54
38,58
39,60
39,61
40,60
40,60
39,56
38,50
38,47
38,45
36,42
35,35
35,33
44,31
53,30
61,31
77,32
81,33
95,35
97,35
103,35
98,34
91,33
82,31
78,30
73,29
57,28
53,28
46,27
44,28
44,27
40,27
28,28
28,27
28,28
28,28
29,28
29,28
29,28
30,29
30,29
29,30
29,31
29,33
30,37
31,40
33,45
34,47
35,51
38,53
39,57
38,57
38,55
38,52
36,47
34,44
32,38
31,35
33,33
37,31
39,32
48,31
54,31
57,32
61,32
63,32
63,31
60,31
56,31
56,31
54,31
51,30
49,30
48,29
46,29
45,28
42,28
41,27
40,27
37,27
36,27
34,28
28,29
28,30
28,30
29,30
29,30
29,31
28,31
29,31
29,32
29,35
30,36
31,39
31,40
32,42
33,44
33,45
34,45
34,46
34,46
34,44
33,42
33,40
31,37
32,33
34,32
39,30
41,30
46,31
48,31
50,31
51,31
51,30
49,30
48,30
47,30
47,30
48,30
44,31
43,30
42,30
41,30
41,30
40,29
40,29
41,30
41,29
40,29
38,30
39,30
38,30
28,32
28,33
28,33
28,33
28,33
28,33
28,34
29,38
30,39
33,43
33,46
35,47
37,51
37,50
37,49
37,47
35,45
33,40
33,39
30,34
30,32
30,31
31,29
32,29
37,29
39,28
40,28
44,28
47,29
51,30
51,30
49,29
49,30
50,30
47,30
47,30
44,30
44,30
44,31
40,30
38,30
39,30
37,30
35,30
33,29
33,29
33,30
32,30
31,30
31,30
41,38
41,43
42,47
45,51
45,53
45,54
46,54
46,53
46,54
46,53
47,49
47,48
46,48
47,46
47,43
46,40
45,40
45,39
46,36
46,35
47,32
48,31
49,31
53,30
53,29
57,29
58,29
58,29
60,30
64,30
66,30
68,31
71,30
72,30
70,29
65,29
63,28
60,28
57,28
55,27
54,27
53,27
51,27
50,27
47,27
45,27
44,27
44,27
44,27
44,27
38,31
39,37
39,40
39,43
39,45
39,48
39,54
40,55
40,56
40,58
40,61
40,66
41,67
40,65
41,63
40,62
40,60
40,57
40,54
39,53
39,55
37,55
36,52
35,48
37,46
41,42
46,37
52,35
61,32
65,32
70,32
69,31
63,31
59,30
58,30
49,29
45,28
42,28
41,28
40,28
40,28
40,28
40,27
40,28
39,28
37,28
36,28
33,28
33,28
33,28
38,33
38,35
38,37
39,39
40,44
40,45
40,50
40,54
40,56
43,59
43,57
43,56
42,53
44,52
43,47
44,45
43,42
43,43
42,41
43,40
44,38
46,36
47,34
47,34
50,31
54,31
59,31
65,31
74,31
78,31
79,31
75,31
74,30
66,29
60,28
52,28
50,27
48,27
46,27
46,27
41,26
41,27
40,26
40,26
41,26
40,27
39,26
38,27
37,27
35,27
34,32
33,32
33,32
33,33
33,33
34,40
34,42
34,45
35,51
36,53
38,61
39,61
39,66
40,67
40,66
39,67
38,65
37,64
36,58
34,54
33,50
34,46
35,43
38,38
40,35
47,31
54,31
60,31
67,32
71,32
76,32
78,31
76,31
67,30
65,30
59,29
56,29
55,29
52,28
52,28
49,28
48,28
48,27
45,27
44,27
42,26
42,26
42,27
41,27
41,27
37,31
38,33
37,38
38,40
37,40
37,43
36,45
37,48
38,48
40,54
40,58
40,59
40,66
41,72
40,73
40,71
40,75
40,75
39,70
38,63
37,60
36,56
36,44
40,43
47,35
50,32
52,30
58,28
60,28
57,29
53,29
50,29
47,28
45,28
43,27
45,27
46,27
45,26
44,27
44,27
43,27
40,27
40,28
38,28
38,27
39,27
38,27
39,27
40,27
40,27
35,40
36,41
36,41
38,49
40,52
41,56
41,56
42,58
43,62
43,60
44,58
43,55
43,54
41,50
41,48
40,41
40,39
40,36
41,34
43,32
45,30
49,29
51,28
53,29
55,28
55,29
54,29
53,28
50,28
49,28
47,28
48,28
48,28
47,28
45,27
48,27
46,27
45,27
44,27
44,27
42,26
41,26
40,27
40,27
39,27
40,27
39,27
40,27
40,27
38,27
33,29
33,29
33,29
32,30
32,31
31,31
32,32
31,33
32,34
34,36
35,39
36,41
36,42
36,43
37,43
38,46
38,43
40,42
39,40
40,39
40,36
41,33
40,32
40,31
41,29
43,29
45,29
45,29
48,29
53,30
53,30
53,29
54,30
52,29
51,29
49,29
47,28
46,28
45,28
43,27
42,27
39,27
37,27
37,27
39,27
40,27
40,27
40,27
40,27
40,27
37,28
37,30
38,30
37,33
40,37
40,39
41,42
42,44
42,46
45,54
45,57
43,62
42,67
42,68
42,70
41,70
40,65
40,64
40,58
40,56
40,50
42,47
42,43
51,38
53,36
65,33
67,33
70,32
71,32
67,32
63,31
59,30
54,29
49,28
48,28
45,28
44,28
44,28
45,28
45,28
47,28
47,28
49,28
48,27
46,27
46,27
45,27
41,27
40,27
39,27
35,29
35,29
35,29
34,29
34,30
34,30
33,31
33,33
31,35
31,35
31,37
31,40
31,41
32,44
34,48
34,50
38,57
38,59
40,66
40,64
40,66
39,64
39,63
37,60
35,56
34,53
34,48
35,41
36,39
37,36
40,33
41,31
46,30
48,30
50,30
52,30
53,29
55,29
53,29
52,30
51,30
52,30
50,30
48,30
51,30
50,30
52,30
50,31
52,31
51,30
34,41
34,42
33,44
32,46
32,48
33,50
34,52
33,51
34,52
34,53
36,55
36,55
36,58
37,61
38,64
37,68
37,68
37,72
37,69
38,70
36,65
38,63
39,59
38,56
37,50
37,45
37,43
40,38
44,36
48,36
63,36
71,35
75,35
79,35
79,35
75,34
69,34
61,34
62,33
57,33
57,33
55,32
54,32
53,32
47,31
46,31
45,31
43,31
40,30
38,31
29,29
29,29
29,31
30,32
30,33
30,38
31,40
32,46
33,49
35,55
37,62
38,64
40,65
40,67
40,72
39,72
40,71
40,67
40,66
40,58
40,51
43,48
53,40
60,38
70,34
73,34
75,35
82,36
78,36
70,37
64,37
61,36
57,35
52,34
49,32
46,30
44,30
42,29
40,28
40,29
38,29
36,29
35,29
35,29
34,29
34,29
35,29
34,29
35,29
35,29
32,30
32,31
33,34
33,36
33,40
33,48
33,54
34,64
35,68
36,78
37,82
37,80
39,79
39,77
39,74
38,63
37,62
36,55
36,49
38,44
40,39
41,36
47,31
50,31
54,30
59,31
60,31
59,30
56,30
55,29
52,29
52,28
51,29
52,28
53,29
52,30
51,30
47,29
45,30
42,30
41,30
40,29
40,29
38,29
37,29
37,29
36,29
36,29
36,28
36,29
30,29
30,29
30,29
30,29
30,29
30,32
31,34
32,41
33,47
34,52
36,65
37,68
38,74
38,78
39,79
37,75
37,70
36,65
36,61
35,57
34,53
34,50
35,45
37,43
41,38
43,34
46,31
53,30
56,30
64,32
70,32
72,32
78,32
79,32
80,31
76,30
79,29
69,28
63,28
58,28
58,28
51,28
42,28
40,28
40,28
39,28
38,28
35,28
35,28
36,28
30,27
29,27
29,28
29,28
29,29
29,29
29,30
30,31
29,32
30,35
30,36
31,41
33,45
34,50
38,57
39,60
40,62
40,62
42,62
40,54
39,53
38,47
39,47
38,45
40,40
43,39
50,38
50,36
57,35
60,32
63,33
65,34
65,33
66,33
63,32
62,31
57,31
54,29
50,29
44,29
41,29
38,29
37,29
37,29
35,29
35,29
35,29
34,29
34,29
35,29
27,28
27,28
27,28
27,27
27,27
28,27
28,28
28,28
28,28
28,30
29,35
31,39
32,41
34,47
35,50
38,59
38,62
38,64
39,67
38,69
38,73
37,71
37,66
37,62
36,58
36,54
36,50
36,44
36,43
40,40
41,40
48,35
52,34
55,33
55,32
56,32
51,31
47,32
41,31
40,31
38,30
37,30
36,31
35,30
34,31
34,31
32,31
31,30
29,30
29,29
35,35
35,36
35,36
36,40
37,40
36,44
36,49
37,50
36,52
35,52
36,59
37,59
38,64
40,68
42,72
46,80
47,83
47,82
48,83
49,83
48,81
46,76
45,71
46,60
47,52
50,44
51,40
53,37
60,36
62,36
67,37
68,37
66,36
63,36
59,36
57,36
52,35
49,35
48,35
48,35
47,35
46,35
45,35
46,35
46,35
46,34
47,35
46,35
45,35
44,34
36,33
37,34
37,38
38,39
39,43
40,44
40,46
39,50
40,55
40,66
40,68
40,71
41,77
43,79
44,75
44,67
43,63
42,55
42,53
43,42
42,39
44,37
56,35
58,34
67,33
68,32
68,32
67,31
66,30
53,30
49,30
46,30
45,29
44,29
43,29
43,29
43,29
43,29
42,29
44,30
44,30
43,30
44,30
43,30
41,30
40,31
40,31
41,31
41,31
41,31
33,31
33,32
33,32
33,33
34,33
35,35
36,39
36,41
38,45
39,49
40,52
42,63
44,65
45,68
47,72
49,81
50,83
51,84
50,89
51,85
51,81
51,77
50,62
49,54
47,43
52,41
54,40
62,37
67,35
73,34
77,34
77,34
70,32
63,32
57,31
54,31
52,30
48,29
47,29
49,29
48,29
48,29
43,29
43,29
42,29
40,29
40,29
41,29
42,29
44,30
33,28
32,28
32,28
32,28
32,28
33,28
33,29
34,29
35,29
36,31
36,32
38,40
40,46
42,67
45,84
46,100
50,128
50,137
52,149
52,149
53,144
55,116
59,98
72,77
80,68
105,50
114,47
135,44
140,44
137,43
130,40
124,39
107,36
93,34
76,33
75,32
68,32
62,31
56,31
52,30
51,30
50,30
46,29
50,30
51,30
51,30
49,29
47,29
46,29
46,29
30,32
30,33
30,35
30,36
30,37
31,41
31,44
32,47
33,50
36,51
38,60
39,62
42,73
43,78
45,83
44,85
44,85
44,78
46,71
45,62
47,51
51,47
72,41
85,40
103,40
116,39
126,38
132,36
130,36
118,34
92,33
83,33
76,32
73,32
68,32
60,32
58,31
53,31
47,31
46,30
42,31
42,31
43,31
43,31
41,32
43,32
43,31
41,31
41,31
40,31
32,30
32,30
33,32
33,33
33,35
33,36
33,38
35,40
35,41
36,44
37,47
39,50
42,59
41,63
43,74
44,80
46,91
45,99
45,100
45,104
45,106
46,103
46,99
45,94
44,77
45,68
49,54
52,48
56,41
69,35
85,34
108,35
111,36
108,35
101,34
97,33
73,32
62,31
49,30
46,30
45,30
45,30
43,29
42,29
43,28
42,28
41,28
40,28
42,28
42,28
33,30
33,30
34,29
34,30
35,30
35,34
35,40
35,40
35,43
36,49
38,55
41,62
44,65
46,67
48,67
48,70
48,67
45,66
44,64
44,66
45,64
43,58
43,56
45,52
45,49
47,46
54,40
63,39
76,38
85,38
91,37
95,36
94,36
85,35
84,34
69,33
63,32
55,32
54,32
50,31
47,31
49,31
45,31
43,31
43,31
42,31
41,31
41,31
42,31
41,31
30,28
30,28
31,29
31,30
30,30
31,32
32,35
33,38
33,43
34,48
36,51
40,56
40,61
43,67
44,66
46,70
48,75
48,76
49,76
50,78
48,76
45,70
43,63
44,56
48,51
52,48
71,40
78,39
95,36
100,35
100,34
95,31
89,31
80,30
78,29
71,29
69,28
66,28
59,28
54,28
50,28
45,28
48,28
46,28
45,28
47,28
48,29
45,29
41,29
41,29
35,29
36,29
36,30
36,30
36,33
37,37
36,40
37,46
38,51
40,63
41,67
42,75
43,78
43,84
43,90
44,90
44,90
44,85
43,88
45,86
46,90
47,94
48,97
49,99
49,97
49,90
48,88
49,68
55,60
69,48
81,46
96,40
116,36
124,37
126,35
124,35
116,34
95,33
89,32
70,30
65,31
61,31
55,30
51,30
46,29
48,29
47,29
44,29
44,28
44,28
32,28
32,29
33,28
33,28
33,28
33,28
34,28
34,29
33,29
33,30
33,35
34,38
35,42
35,51
37,60
41,74
44,80
46,87
48,99
49,102
53,95
53,96
51,91
49,84
49,80
49,77
50,82
48,79
52,73
56,67
70,58
84,51
99,51
130,41
134,40
143,38
136,37
134,36
107,34
93,33
72,31
66,30
64,30
62,29
62,29
61,29
58,29
53,30
53,30
52,30
39,30
40,30
40,31
40,31
40,34
40,40
40,45
40,55
41,64
41,71
45,84
46,89
47,102
48,106
48,110
49,107
47,112
46,121
46,118
46,109
44,99
45,92
49,77
52,65
69,47
79,45
96,38
99,37
104,34
105,34
101,34
84,34
75,33
63,31
58,31
53,30
45,30
44,30
44,30
43,30
42,30
45,30
45,30
44,30
43,30
42,29
41,30
42,29
41,30
40,30
33,31
33,32
34,34
34,35
35,37
36,42
36,44
38,50
38,54
39,55
41,64
41,69
43,84
46,98
46,107
51,124
53,124
59,130
63,129
62,126
63,108
62,95
57,86
52,78
49,72
49,56
49,51
58,45
65,41
73,40
85,36
90,35
92,34
92,34
87,33
76,32
70,31
67,30
66,29
63,30
57,30
56,30
50,30
48,30
45,31
41,31
40,31
40,30
40,30
39,30
35,33
36,34
36,37
36,39
36,40
37,42
37,44
37,46
39,52
40,61
41,71
46,88
48,92
48,96
49,106
50,109
51,111
48,104
48,99
49,95
49,90
48,76
53,67
57,55
69,47
78,44
87,40
93,37
98,35
92,35
84,34
75,32
72,31
67,31
56,30
54,30
49,30
46,30
45,29
44,29
43,29
43,29
45,29
44,29
45,29
46,29
45,29
44,29
43,29
40,29
35,30
35,31
36,34
37,37
37,40
37,45
38,49
40,59
39,64
41,77
41,81
43,85
45,94
45,97
48,106
49,103
50,105
50,103
49,101
50,94
49,83
48,77
48,65
54,59
65,48
78,44
96,40
102,39
103,37
98,35
95,35
82,33
71,32
63,31
54,30
51,30
50,30
49,30
45,30
45,30
46,29
44,29
43,30
42,30
42,30
41,30
40,30
40,30
40,30
40,30
28,31
28,31
28,31
28,31
28,31
28,31
28,31
28,32
28,32
27,33
28,34
28,35
30,36
30,37
31,38
31,38
31,40
31,43
32,45
31,46
31,48
32,52
35,55
35,57
36,56
36,53
37,53
36,49
35,47
36,44
45,40
49,40
61,39
66,38
69,37
68,37
67,37
55,35
45,34
39,33
37,33
38,33
39,33
39,33
38,32
37,32
37,32
36,32
35,32
34,31
27,33
27,34
27,33
27,34
29,33
29,34
29,35
30,35
30,35
31,37
31,37
30,39
30,39
31,40
33,46
35,48
36,57
39,61
40,67
41,67
40,68
38,68
38,68
37,68
36,67
36,70
37,73
37,71
37,71
36,67
42,59
47,54
53,52
68,45
77,42
94,44
98,45
97,45
94,43
86,41
72,40
64,39
56,38
50,36
43,35
42,35
41,34
40,33
40,32
37,32
28,31
28,31
28,31
28,33
28,33
28,34
27,34
27,35
27,40
28,40
28,47
29,49
31,54
33,62
35,66
36,70
37,74
37,75
38,84
39,89
39,88
38,85
39,82
48,71
54,63
73,47
82,44
94,41
110,41
110,41
106,42
102,41
94,41
76,40
69,38
58,36
53,35
52,35
46,36
45,35
40,35
40,34
38,34
36,34
36,33
36,32
37,32
36,32
36,31
36,31
27,33
27,33
27,33
26,33
26,33
26,33
26,33
27,34
30,39
31,41
34,46
39,62
40,70
41,86
42,93
42,96
43,101
43,101
43,105
43,99
43,94
42,81
43,75
51,60
57,52
60,45
85,41
98,41
104,41
98,42
97,41
90,39
76,39
61,37
59,36
57,35
56,36
54,36
55,36
52,36
46,34
45,34
44,34
43,32
40,32
40,31
38,31
38,31
36,31
36,32
29,33
29,33
29,35
30,37
31,40
31,40
32,44
32,45
33,50
35,54
37,60
39,67
40,71
42,77
46,84
46,92
49,110
50,125
51,132
50,139
49,141
47,134
48,126
56,109
72,80
84,65
102,52
106,50
113,42
114,40
106,40
87,37
79,37
69,36
60,35
51,34
47,34
46,34
45,34
46,34
45,34
43,34
44,34
43,34
42,34
42,34
41,33
41,33
40,33
40,34
28,27
28,27
29,29
30,30
29,31
30,34
29,36
31,38
32,39
32,40
34,42
34,46
36,59
38,67
39,73
41,89
41,93
43,98
43,97
43,88
41,73
43,64
59,49
69,42
79,36
82,34
87,34
89,34
79,35
61,35
57,35
49,34
40,34
37,34
36,32
36,33
36,32
36,31
36,30
35,30
34,29
34,30
34,29
33,29
33,29
33,29
34,29
34,29
35,29
34,29
25,27
25,27
25,27
26,27
26,27
26,27
26,27
27,27
28,26
28,26
28,26
28,26
29,27
29,29
30,32
33,40
35,44
38,57
40,61
40,69
43,78
44,82
44,88
43,83
41,86
42,81
40,78
41,63
45,56
63,45
71,41
88,36
95,35
102,36
104,35
100,35
84,34
76,34
72,33
61,32
57,32
52,32
50,31
50,30
45,28
42,28
37,27
36,27
35,27
34,27
27,27
27,27
27,27
27,27
27,27
27,27
27,28
27,28
28,29
28,30
28,32
31,40
32,46
35,52
36,57
37,60
39,73
38,70
37,72
36,71
36,70
34,63
34,57
32,45
35,38
38,36
47,31
50,30
55,29
57,29
60,29
58,28
54,28
49,28
48,28
46,28
43,28
41,28
40,28
41,28
40,28
37,28
36,27
35,27
33,27
33,26
30,26
30,26
29,27
29,27
25,26
25,26
26,26
26,26
27,26
28,26
28,26
28,26
29,26
29,26
29,27
29,29
30,32
31,39
32,43
35,62
36,75
39,100
40,113
40,125
41,123
40,120
40,112
38,94
37,79
36,72
38,59
43,49
55,40
65,35
68,33
77,32
77,32
70,31
64,30
57,30
45,29
39,29
36,28
35,28
35,28
35,28
36,27
35,27
35,27
33,27
31,27
30,27
29,26
29,26
26,26
26,26
26,26
25,26
25,26
26,26
26,26
26,26
26,26
27,28
27,30
29,37
30,40
36,51
38,61
40,68
43,78
43,85
44,99
44,99
42,101
40,97
40,94
40,83
40,74
41,65
47,52
58,46
69,37
75,35
78,34
76,32
73,31
58,30
55,29
49,29
40,28
40,27
38,28
37,27
37,27
35,27
34,27
33,27
33,27
33,27
33,26
33,26
31,26
31,26
27,26
27,26
27,26
27,26
26,27
27,27
27,28
27,30
29,36
30,40
34,48
36,53
38,55
40,65
42,71
43,75
43,82
43,88
43,91
43,87
41,90
41,94
47,78
53,71
60,63
83,58
90,52
104,40
105,39
101,39
87,37
80,35
59,32
47,30
45,30
44,29
46,29
43,29
41,28
40,28
39,28
36,27
33,27
33,27
34,27
35,27
36,27
35,27
35,27
35,27
26,26
26,26
26,26
26,26
26,27
26,27
26,27
27,27
27,27
27,27
28,26
28,27
29,27
31,27
33,27
34,27
35,27
37,27
38,29
37,30
37,30
37,33
39,44
40,46
40,57
41,63
42,69
43,74
41,71
40,67
39,64
39,53
40,48
42,45
54,41
60,39
69,37
70,36
71,36
69,34
63,33
50,31
45,29
42,29
40,27
38,27
37,26
37,27
37,27
36,27
26,26
27,26
28,27
30,28
30,29
30,32
32,36
34,38
36,45
37,52
39,58
44,75
45,85
46,98
47,102
46,99
44,90
43,82
46,60
52,51
60,43
72,37
76,34
79,32
79,32
75,32
59,32
51,30
43,30
41,30
36,29
37,28
36,27
36,27
35,27
34,27
33,27
32,27
32,27
31,27
30,26
29,26
29,26
29,26
28,26
28,26
27,26
27,26
27,26
27,26
27,26
26,27
26,27
27,27
27,27
27,28
27,28
29,29
30,30
30,31
32,36
34,39
38,48
39,53
39,57
42,73
43,79
46,94
45,99
45,101
45,103
44,97
41,90
40,83
40,73
45,56
48,48
59,43
63,40
70,36
73,34
73,34
68,34
63,33
58,33
48,31
46,31
42,29
40,28
40,28
39,27
40,27
37,26
36,26
36,26
33,26
32,26
32,26
32,26
32,26
28,27
29,28
29,29
30,31
30,32
31,37
33,40
36,48
37,52
37,54
38,70
40,83
40,101
40,104
42,108
43,113
45,112
48,107
48,101
46,95
44,90
43,88
42,82
44,71
47,62
61,53
66,49
75,42
79,40
82,38
78,36
72,35
59,31
53,30
50,29
41,29
38,28
36,27
35,27
35,27
34,27
33,27
32,26
32,26
32,26
31,26
31,26
31,26
30,26
30,26
31,34
32,41
33,43
35,51
38,56
40,61
41,78
43,85
47,101
49,105
50,108
48,107
48,98
45,90
45,81
47,65
49,57
56,48
60,42
62,39
63,34
62,32
55,31
48,31
44,30
38,28
36,28
35,28
34,27
33,28
33,27
32,27
31,27
31,27
30,27
30,26
29,26
29,26
29,26
28,26
27,26
27,26
27,26
27,26
27,26
27,26
27,26
27,26
27,26
27,26
26,26
27,26
26,26
26,26
26,26
26,26
26,26
26,27
26,27
27,28
28,29
29,31
30,34
33,44
34,49
37,59
37,67
39,74
39,81
39,80
38,74
39,68
40,64
41,50
44,46
48,38
47,32
48,32
46,31
44,31
40,29
39,29
36,29
36,28
35,28
35,28
35,28
35,27
34,27
33,27
31,27
31,26
30,26
29,26
28,26
28,26
28,26
28,26
28,26
27,26
26,26
26,26
26,26
26,25
26,26
26,26
26,26
26,26
27,27
27,27
30,27
31,28
34,29
34,30
35,31
36,36
36,40
36,53
36,63
38,69
40,87
40,96
41,100
40,102
40,101
38,93
37,84
40,67
43,60
50,55
61,43
64,39
71,34
72,34
69,33
57,32
54,31
44,30
40,29
37,28
36,28
37,28
38,28
38,28
36,27
35,27
35,27
33,27
31,27
30,26
26,26
27,26
26,26
27,26
27,27
27,26
27,27
27,26
29,28
29,29
30,30
33,37
35,40
40,52
43,57
45,65
47,81
48,92
51,106
51,109
49,114
47,117
48,109
47,91
50,85
51,72
61,53
65,46
70,37
70,35
71,34
65,34
57,33
45,31
40,31
39,30
37,29
36,29
36,28
35,28
34,28
33,28
32,28
30,28
30,28
30,28
30,27
30,27
29,26
29,26
28,27
28,27
28,28
28,28
28,31
29,34
29,36
31,41
32,45
37,55
38,61
41,78
43,86
44,96
45,104
45,106
44,101
46,93
48,82
60,61
66,53
75,42
81,39
81,37
76,34
67,33
54,31
47,29
42,29
36,28
36,28
35,28
34,28
33,28
31,27
30,27
30,27
29,27
29,27
29,27
29,27
30,27
29,27
29,27
29,27
28,27
28,26
28,27
28,27
29,27
27,25
27,25
28,25
27,25
27,26
27,26
26,26
26,27
27,27
27,28
27,28
28,31
30,35
34,44
38,48
39,56
44,68
45,71
46,72
46,75
45,73
43,72
41,68
43,59
44,56
47,53
51,43
51,39
52,33
52,33
49,31
45,30
40,30
38,30
35,28
34,29
32,29
31,30
30,30
30,31
30,31
29,31
29,31
28,31
28,29
28,27
27,27
26,27
26,26
27,26
27,26
27,26
28,26
28,26
28,26
28,27
28,27
28,28
28,29
28,32
29,35
31,40
35,50
36,55
39,75
40,81
41,86
40,84
40,80
38,74
39,65
39,55
50,44
59,40
69,39
69,36
70,34
68,32
60,31
45,29
40,29
35,28
33,28
32,28
30,27
29,26
30,27
31,27
30,27
30,27
30,27
29,27
28,27
27,26
27,26
27,26
27,26
27,26
27,26
27,26
27,26
26,26
26,26
26,26
26,26
26,26
26,26
26,26
26,26
26,27
27,27
27,28
28,31
29,32
32,38
35,44
36,49
40,64
41,74
44,86
44,90
44,93
44,94
43,88
42,81
41,76
40,68
37,56
38,52
37,40
40,34
40,32
43,30
44,30
43,30
41,30
40,29
35,29
34,29
32,28
32,28
31,27
31,28
32,28
32,27
32,28
32,27
32,27
32,27
31,26
28,27
28,27
28,26
28,27
28,27
28,27
28,28
28,29
29,32
30,34
33,47
35,56
37,61
40,66
40,73
42,83
43,80
44,87
44,86
44,92
44,93
43,98
42,95
40,87
42,84
46,69
51,62
53,57
60,42
66,38
70,31
69,31
59,31
56,30
52,30
40,29
39,30
34,30
34,30
35,30
34,29
34,29
31,27
30,27
30,26
29,27
29,27
30,26
30,26
31,26
27,27
27,27
27,27
28,29
28,30
29,33
29,34
31,40
32,44
33,47
35,54
35,58
37,68
37,69
37,69
36,68
35,70
34,65
33,60
32,55
34,48
35,43
40,35
42,33
47,31
52,30
54,31
55,31
53,32
51,32
45,31
43,30
40,29
40,28
40,28
37,27
38,27
36,26
35,26
33,27
32,27
32,27
32,26
31,27
32,27
31,27
31,27
30,27
30,27
29,27
26,29
26,30
26,31
26,32
26,33
27,35
28,39
28,40
30,50
31,54
32,59
34,66
35,69
37,81
39,83
39,85
39,85
38,82
38,77
37,72
37,63
38,47
40,45
43,38
44,35
45,33
47,30
46,30
43,29
41,29
40,28
39,28
37,27
36,28
35,28
35,28
35,28
34,28
33,28
33,27
33,27
32,26
32,26
31,26
31,26
30,26
29,26
30,26
30,27
30,27
25,26
25,26
25,26
25,26
25,26
25,26
25,26
26,26
26,26
26,26
26,26
26,28
26,29
26,31
26,34
26,35
29,40
30,42
33,51
35,55
37,57
40,65
40,70
41,76
40,76
41,79
41,89
42,94
40,93
40,89
39,83
39,70
39,63
40,42
42,37
44,33
46,30
47,30
47,30
46,29
41,28
40,28
39,29
38,28
37,28
35,28
33,28
32,28
32,28
31,27
28,27
28,29
28,31
29,34
30,36
31,40
32,46
32,50
34,57
36,60
36,63
36,64
36,66
37,68
37,67
37,68
36,64
35,63
34,63
34,60
33,55
32,47
32,45
35,40
40,39
41,35
44,33
46,32
48,30
47,29
46,29
41,29
40,28
39,28
40,28
39,28
39,27
38,27
39,27
39,27
39,27
38,27
37,27
35,27
35,27
36,27
35,27
34,27
33,26
33,27
26,27
26,27
26,28
27,28
27,29
28,29
28,30
29,32
30,36
31,39
33,43
36,52
37,57
39,64
40,69
40,72
39,75
38,75
37,72
36,70
36,66
37,56
37,48
40,40
42,36
46,32
49,31
49,29
50,29
50,29
47,28
45,28
42,28
39,28
38,28
36,28
34,28
33,28
32,28
32,27
31,27
30,26
30,26
29,26
30,26
30,26
29,26
30,26
30,27
30,27
27,27
27,27
27,27
27,27
27,27
26,27
27,27
27,28
27,28
28,29
28,31
30,37
31,40
32,45
34,56
37,60
40,68
42,70
43,73
44,77
45,78
43,75
41,75
42,75
44,72
45,65
50,55
51,52
52,49
51,40
50,35
47,35
43,34
42,34
42,32
41,32
40,30
40,30
40,29
38,30
36,30
34,31
33,32
32,32
31,32
31,32
30,30
29,29
30,29
30,28
27,27
27,27
26,27
26,27
26,27
26,27
26,27
26,27
27,29
28,32
30,40
33,51
36,58
40,74
41,83
43,90
44,94
44,97
44,97
44,96
44,94
41,84
41,75
41,75
45,65
49,58
51,52
61,41
69,40
78,36
79,34
78,33
71,33
64,32
53,31
48,30
44,30
40,29
40,29
38,29
37,29
36,29
34,28
34,28
33,28
33,28
33,27
32,26
32,26
31,26
27,27
28,27
29,27
29,27
31,27
31,27
31,27
32,28
32,29
34,33
34,35
35,41
36,46
39,54
40,63
41,75
42,85
43,91
42,103
43,101
42,99
40,98
40,95
41,83
42,74
42,63
46,56
47,53
54,42
57,38
60,34
60,32
58,31
52,30
47,29
41,28
38,29
37,30
35,31
35,32
35,32
35,32
35,32
35,30
35,29
35,28
35,28
35,28
33,27
33,27
28,26
28,26
28,26
27,28
27,29
28,33
28,37
30,40
32,47
33,50
36,57
37,58
38,61
38,65
38,70
38,70
37,72
38,73
37,80
38,79
40,70
41,65
42,62
47,51
52,44
55,34
57,32
58,31
57,30
55,30
47,32
43,33
40,33
39,33
37,34
34,34
34,33
35,30
33,30
34,30
33,28
33,28
33,28
33,29
32,28
32,28
32,28
31,28
31,28
30,28
34,26
34,27
34,27
33,27
33,27
33,28
30,28
30,27
30,27
30,27
29,27
28,29
29,32
30,40
32,45
33,54
36,63
38,72
41,92
43,98
43,101
44,103
45,103
43,100
43,93
44,85
52,70
57,66
66,54
71,49
74,45
80,40
75,37
65,33
60,33
53,31
45,31
41,33
39,39
40,42
40,43
42,44
42,44
42,40
41,39
40,31
39,29
36,28
33,27
31,27
28,26
28,26
28,26
27,26
27,26
27,26
28,27
27,28
28,29
28,31
30,38
31,42
35,54
36,59
38,66
40,84
43,95
48,104
49,102
47,109
47,107
48,106
53,87
59,81
67,65
71,57
82,49
95,38
93,38
83,33
81,32
74,36
63,39
56,39
49,39
49,40
47,40
43,38
41,37
38,33
37,33
35,32
34,31
34,30
34,30
33,30
33,30
32,30
32,30
30,29
28,26
27,26
27,26
27,27
28,28
28,28
29,30
32,34
35,42
37,49
39,57
41,70
41,76
43,83
44,81
45,81
44,78
44,80
46,75
52,72
55,67
62,62
64,58
71,44
70,39
71,35
60,32
55,31
48,34
44,37
41,40
39,40
39,41
38,41
38,40
38,34
38,31
36,29
36,28
35,28
34,27
33,27
32,27
31,27
32,26
32,27
32,27
33,27
33,27
33,27
28,27
27,27
27,27
27,27
27,27
27,27
27,27
27,27
28,28
28,28
28,28
30,31
30,31
32,37
34,40
36,47
39,64
41,71
43,95
44,105
45,113
44,127
45,133
46,133
46,127
46,119
50,107
54,98
59,76
59,61
62,56
68,44
71,36
67,33
64,33
59,32
53,33
48,33
42,35
41,36
40,36
40,36
39,36
39,33
39,31
37,28
36,28
35,28
35,27
33,27
28,27
27,27
27,27
27,28
27,29
28,30
29,34
30,36
33,44
35,48
37,54
41,67
44,79
47,94
48,101
48,104
49,114
48,113
48,111
50,111
49,105
52,90
53,81
56,66
59,54
63,48
71,36
76,34
74,33
70,32
66,31
56,32
51,33
42,35
40,36
39,36
40,37
39,36
36,34
34,32
32,30
32,29
30,28
30,28
29,27
29,27
29,27
28,27
28,27
29,27
27,26
27,26
27,27
27,27
27,28
27,28
27,32
27,35
27,40
29,48
30,55
32,69
35,79
36,86
40,98
41,104
44,103
44,106
45,103
43,98
40,91
41,75
41,69
41,64
45,51
48,41
55,35
57,34
57,34
57,33
57,33
50,33
46,35
45,35
41,35
40,35
40,35
40,33
40,32
39,29
40,29
38,28
38,27
35,27
34,27
33,26
32,26
31,26
33,26
33,26
27,27
27,27
27,28
28,28
28,32
29,35
30,39
33,48
34,54
36,64
37,66
39,72
40,83
41,84
43,81
43,83
44,85
44,85
43,82
44,69
45,64
47,60
53,46
55,38
62,33
61,32
62,31
58,31
54,30
47,31
44,32
41,35
39,38
38,38
36,38
36,38
35,36
34,31
32,30
32,28
31,28
31,28
31,27
30,27
29,27
29,27
29,27
28,27
28,27
28,27
25,26
26,28
26,29
26,32
26,34
27,36
28,38
29,41
30,44
31,44
33,55
34,59
36,65
38,69
39,77
40,86
41,87
41,83
41,81
40,79
39,72
37,68
36,66
34,59
32,53
35,47
36,45
38,40
44,35
48,35
56,32
57,32
56,32
54,31
52,30
47,28
45,28
40,28
37,27
37,27
35,27
33,27
32,27
32,26
32,26
32,27
31,27
31,26
30,27
30,27
28,26
27,26
27,26
27,26
27,26
27,27
27,27
28,27
27,27
27,27
26,27
26,28
26,29
26,33
27,36
29,41
32,44
34,47
37,58
37,61
38,71
38,74
40,81
40,96
40,100
42,110
41,110
43,113
45,114
45,116
42,96
41,82
47,67
52,61
57,52
72,39
75,36
78,37
77,38
66,38
59,36
53,35
40,34
37,32
36,28
35,27
34,27
34,27
32,27
32,27
26,27
26,28
28,32
28,33
30,38
31,41
32,45
35,55
36,59
38,65
39,68
40,71
40,72
42,76
42,84
42,89
42,92
42,98
44,106
42,102
42,97
41,89
40,75
40,64
38,48
39,46
42,40
51,37
57,37
62,36
63,37
64,36
63,35
60,31
52,29
49,28
50,27
49,27
47,27
42,27
41,27
40,27
36,27
36,27
33,27
33,26
32,26
31,25
30,26
30,25
29,25
28,25
28,25
27,25
27,25
27,25
26,26
26,26
27,28
27,29
28,31
29,36
31,41
34,54
36,62
37,79
41,103
42,111
44,116
44,126
45,122
44,119
43,112
43,96
42,90
42,86
44,68
48,56
56,43
59,38
62,37
68,34
69,34
67,35
64,38
62,38
57,38
53,38
47,37
43,35
41,34
36,29
34,28
34,28
33,27
33,27
33,27
33,27
32,26
32,26
29,27
29,27
29,27
29,27
29,27
29,27
28,29
29,30
29,33
31,36
32,40
34,48
36,54
38,59
41,73
42,80
44,100
44,110
44,119
44,131
45,136
46,139
45,128
43,122
43,101
42,97
39,71
41,65
50,49
60,45
67,41
82,36
86,35
89,33
88,33
83,33
67,32
63,32
54,31
51,31
50,30
46,30
44,30
42,29
40,29
39,29
36,29
36,29
36,28
35,28
31,28
30,28
30,29
30,28
30,29
30,29
30,29
30,30
29,30
30,33
30,36
32,48
33,51
34,61
37,77
39,84
40,100
42,107
43,116
45,128
48,134
48,135
47,133
47,132
45,113
43,110
40,89
40,81
40,69
40,51
43,45
51,38
57,35
64,32
68,31
69,31
65,31
61,30
56,30
42,29
40,29
37,28
36,28
35,28
33,28
34,28
34,27
33,27
32,27
31,27
29,27
29,27
28,27
27,27
27,27
27,27
27,28
28,31
28,34
29,39
30,44
32,48
33,60
35,65
37,78
38,84
40,96
40,105
41,106
42,111
43,101
42,92
41,82
41,79
39,62
38,49
35,42
35,40
40,36
41,34
45,33
49,32
51,31
52,31
49,31
47,31
42,30
41,30
38,29
36,29
35,28
33,28
32,27
31,27
31,27
31,27
31,28
31,27
32,28
31,27
28,27
28,27
29,27
29,27
29,27
29,28
28,29
29,30
29,35
29,37
30,42
31,47
32,52
34,66
36,67
38,77
40,82
40,86
41,86
43,83
42,85
43,87
43,84
42,86
40,85
40,81
39,78
36,67
35,59
37,44
39,40
41,35
45,32
47,32
52,31
52,31
53,31
49,30
48,30
44,30
40,30
40,30
35,29
34,29
32,29
31,28
31,28
30,28
30,29
31,29
28,28
28,27
29,27
28,28
29,28
29,29
29,30
28,32
28,34
28,36
30,42
31,45
33,54
35,60
36,68
39,75
40,82
42,91
43,99
43,100
46,104
48,106
46,100
47,102
45,87
44,84
40,68
39,61
37,56
38,44
40,43
44,35
47,34
52,33
60,33
62,33
60,32
58,32
55,31
47,31
43,31
34,31
33,31
33,31
32,31
31,32
31,31
31,31
30,31
29,30
29,27
29,27
28,27
29,26
29,27
29,27
29,29
29,30
29,31
29,32
28,32
28,34
29,35
29,37
30,40
31,42
32,54
34,59
35,66
37,80
38,86
41,90
42,90
43,87
44,80
44,81
43,76
43,77
41,75
40,72
39,70
36,62
35,60
39,47
41,44
45,42
56,38
62,36
69,33
69,33
66,33
58,32
54,31
41,31
35,30
35,30
34,31
34,32
34,32
34,32
28,31
28,31
28,33
29,34
29,35
30,38
30,40
32,46
32,48
34,53
36,57
37,58
39,63
39,63
40,65
41,71
42,72
40,77
41,77
41,75
42,71
41,68
39,56
39,50
38,45
37,38
36,36
40,32
44,31
46,31
50,31
51,31
55,31
55,30
49,29
48,30
47,29
46,29
44,29
40,29
39,29
39,29
36,28
34,27
33,27
32,27
32,27
31,27
30,27
29,27
27,27
28,27
28,27
28,28
28,27
28,28
28,28
28,28
28,29
28,29
27,30
28,31
29,34
29,34
30,37
32,40
32,41
34,49
34,54
36,65
37,69
39,73
41,75
42,76
44,78
45,82
44,77
42,76
41,76
39,75
38,68
37,66
36,56
35,54
36,46
37,42
39,40
45,36
52,36
61,34
65,34
65,32
62,32
58,32
48,32
44,31
40,31
35,31
34,31
34,30
28,28
28,28
27,31
27,31
27,34
28,37
28,39
29,42
29,45
32,52
32,55
37,68
38,74
40,85
42,89
42,88
41,86
40,84
39,79
37,71
38,62
39,57
43,54
49,47
53,40
62,33
66,33
67,33
65,32
64,32
57,31
52,30
47,29
40,28
38,28
36,28
35,27
35,27
34,27
34,27
33,27
33,27
33,27
31,27
31,27
31,27
31,27
30,27
29,27
30,28
30,39
31,40
31,41
32,45
33,48
34,52
35,56
36,57
38,60
39,61
42,63
42,66
42,67
42,67
42,69
41,71
39,74
39,72
38,69
39,71
39,71
37,62
37,56
38,47
40,42
41,40
51,36
57,35
66,35
70,35
70,34
69,34
66,33
54,32
50,32
47,31
41,31
39,31
38,30
37,30
34,30
34,29
33,29
31,28
31,29
31,29
31,29
31,29
32,29
31,29
28,27
27,28
28,29
28,32
29,33
30,36
32,40
34,44
37,53
38,56
39,62
40,67
40,69
41,80
42,91
41,94
41,100
41,102
42,108
41,106
42,106
42,93
41,83
40,76
40,66
41,62
44,45
45,40
54,35
58,31
63,30
65,30
65,30
59,30
53,29
47,29
39,28
38,28
35,28
36,28
36,28
37,28
37,28
35,28
34,27
34,27
32,27
32,27
30,27
30,27
29,27
29,27
29,27
28,28
27,29
27,30
27,31
28,33
29,37
30,39
32,45
33,47
34,50
35,54
35,54
35,55
35,57
37,58
38,61
39,64
39,61
40,60
39,58
38,55
37,56
36,56
35,55
34,54
33,53
32,50
31,40
31,38
33,32
35,31
36,29
40,28
40,28
41,28
41,28
41,28
41,28
43,29
43,29
41,28
40,28
39,28
38,28
35,27
34,27
32,27
31,39
31,41
31,43
31,52
31,54
32,58
34,65
36,69
39,77
40,83
41,83
42,88
42,90
42,93
41,92
40,88
37,74
36,69
36,54
37,45
37,40
45,33
49,32
55,31
60,31
65,31
71,31
69,31
65,30
62,29
62,29
54,29
52,28
46,28
44,28
42,28
40,27
38,27
35,27
34,27
33,27
33,26
33,26
32,26
32,26
31,26
31,26
30,26
29,26
29,26
28,29
28,29
29,30
29,34
29,35
30,40
31,47
31,49
33,60
33,64
35,75
37,77
37,79
37,88
37,90
37,90
35,83
34,78
35,73
35,64
36,57
36,50
41,43
46,40
57,35
61,31
66,31
73,32
71,32
66,31
64,31
57,31
48,30
43,29
40,28
38,27
37,27
36,26
33,26
33,26
33,26
33,26
35,26
36,26
36,26
35,27
35,27
34,27
32,27
31,27
29,29
29,31
29,32
28,34
29,35
29,39
30,41
31,43
33,50
34,54
36,59
38,67
39,70
40,79
40,83
42,92
44,101
44,105
44,108
42,108
42,104
41,97
41,90
41,70
42,61
47,47
51,41
53,39
62,36
63,35
65,34
63,33
59,32
53,29
49,29
42,29
40,29
38,28
36,28
36,28
34,28
34,28
32,27
31,27
31,27
31,27
30,27
30,27
30,27
30,27
27,26
27,26
27,27
26,27
26,27
26,27
26,27
26,27
26,29
27,31
28,34
30,38
30,40
32,46
33,49
35,53
36,56
36,58
37,61
39,65
38,64
39,62
39,63
39,59
39,57
40,53
42,44
42,41
47,35
48,33
49,31
48,29
47,29
42,28
40,28
38,28
34,29
32,28
30,29
30,28
30,28
30,28
30,28
30,27
31,27
31,27
31,27
30,27
30,27
29,27
27,27
27,27
27,28
27,28
27,29
27,31
27,32
27,34
27,38
28,40
29,45
30,47
32,56
34,59
34,64
36,62
37,63
39,69
38,70
39,68
39,64
39,64
38,65
37,63
36,51
36,49
36,43
38,38
39,35
41,30
42,29
41,28
42,28
41,28
40,28
40,28
40,28
39,28
39,28
37,28
37,28
37,29
37,29
36,28
34,28
34,28
33,28
31,28
30,27
29,27
29,26
29,26
29,26
29,27
28,27
27,27
27,28
28,29
28,33
28,34
29,42
29,44
31,52
33,54
34,65
35,74
35,74
37,83
38,90
40,100
41,97
41,100
42,95
42,94
41,79
42,73
44,64
48,50
51,46
55,36
56,34
59,31
58,31
57,31
49,29
47,29
43,28
40,27
39,27
35,27
34,27
34,27
34,27
33,26
31,26
30,26
30,26
29,27
30,27
30,27
26,28
27,28
27,29
29,32
30,34
32,41
33,46
35,50
39,60
40,63
40,70
42,69
43,74
43,78
44,79
45,91
46,101
48,103
48,98
49,99
49,96
50,86
47,72
47,69
46,62
47,53
52,46
58,39
64,36
65,33
63,30
63,30
54,29
49,28
38,28
37,28
35,28
33,28
32,28
31,28
32,29
32,29
32,29
31,28
32,28
32,28
32,27
32,27
32,27
31,27
29,26
30,26
30,27
30,28
31,29
31,30
31,30
32,32
32,34
33,42
33,45
34,51
36,60
36,64
38,70
38,75
39,76
40,90
40,93
42,98
43,101
45,104
44,102
45,98
44,82
43,73
42,70
44,56
49,50
60,39
68,38
70,35
75,33
74,32
68,32
63,30
55,30
43,28
37,28
35,27
34,27
32,27
32,27
33,27
34,27
33,27
32,27
32,27
32,26
32,26
26,26
26,26
26,27
26,27
26,26
26,26
26,26
26,27
27,27
27,27
28,27
28,28
29,30
29,31
29,34
30,36
30,39
33,44
34,50
37,68
39,90
40,100
42,115
42,115
40,122
40,114
40,116
38,87
36,77
38,65
40,61
41,51
44,38
46,36
47,31
45,30
44,30
40,29
37,28
35,27
34,27
34,27
34,27
34,26
32,26
32,26
32,26
32,27
31,27
30,27
27,29
28,29
27,29
27,32
28,33
28,36
29,39
31,43
32,47
34,50
36,59
37,63
38,70
38,71
39,80
39,85
39,88
41,96
42,98
43,98
41,86
41,83
41,66
41,60
41,48
45,36
50,35
57,34
59,32
60,31
56,29
53,29
44,28
41,27
37,27
34,27
33,28
33,28
32,28
32,27
32,28
31,28
29,27
29,27
28,27
28,27
28,27
28,27
28,27
28,27
28,28
28,28
28,28
28,29
28,29
27,29
27,29
28,33
28,35
28,36
29,40
30,45
32,49
33,50
34,55
35,61
36,62
38,67
37,68
38,70
40,74
40,80
42,88
42,89
44,90
46,90
46,86
47,73
46,60
49,49
49,43
53,41
56,34
57,32
56,31
56,30
52,30
44,29
41,28
36,28
35,28
35,28
34,28
34,27
34,27
34,27
34,27
32,27
32,26
31,26
28,27
28,28
28,28
29,30
29,32
29,33
30,39
30,41
31,44
32,52
34,57
38,64
39,66
40,71
41,78
41,82
43,93
42,97
43,103
43,105
43,103
43,97
42,90
40,72
39,61
40,46
40,40
40,37
44,31
46,29
47,27
46,27
44,27
41,27
40,27
36,27
35,27
34,27
35,27
34,27
34,27
34,27
33,27
33,26
32,26
31,26
30,26
29,26
30,26
30,26
27,26
27,26
27,26
27,26
27,27
27,27
26,28
26,28
26,29
27,30
28,31
29,34
31,37
32,40
35,47
35,50
38,57
38,60
40,67
40,74
39,79
39,88
39,91
38,90
36,85
36,82
37,64
39,57
40,42
42,39
44,36
47,31
45,31
45,30
44,30
40,30
37,28
36,28
34,28
33,27
33,27
35,27
35,27
32,27
32,27
31,28
29,28
28,27
26,27
26,27
28,27
28,27
28,27
28,27
28,27
28,28
28,29
29,32
30,36
31,41
32,45
33,49
36,53
36,57
38,58
38,62
38,63
38,66
37,66
36,65
35,63
34,60
34,51
35,45
36,39
39,35
40,33
41,31
42,30
41,29
41,29
38,28
36,28
35,28
35,28
34,28
33,28
33,28
33,28
32,27
32,28
31,27
31,27
32,27
31,27
30,27
29,27
29,27
29,27
29,27
30,26
30,26
30,26
30,26
30,26
30,26
29,27
29,27
30,29
31,33
32,39
33,45
35,49
38,60
40,64
41,69
42,70
42,70
43,73
41,70
42,74
42,73
42,74
42,77
42,73
40,67
39,60
37,52
35,49
35,45
35,39
35,36
34,32
35,31
35,30
36,28
36,28
38,28
40,29
40,29
40,29
39,29
40,29
39,28
39,28
38,28
37,28
35,28
34,28
34,28
29,27
28,27
28,27
27,27
27,27
27,27
28,28
27,28
27,29
27,29
27,31
27,31
28,34
29,35
30,40
31,40
32,41
34,46
34,46
37,54
36,58
39,71
40,76
40,85
39,86
38,81
38,70
37,61
39,47
42,41
45,33
52,30
57,30
69,30
75,30
82,31
82,31
79,30
73,30
71,29
62,29
45,28
40,28
38,28
39,28
39,28
38,28
37,28
37,27
36,28
27,30
27,30
28,33
28,35
28,37
29,42
30,45
31,51
31,55
32,60
34,72
36,73
38,74
40,77
40,83
42,92
42,95
42,94
42,97
41,97
41,89
40,81
42,63
42,55
47,49
52,40
54,34
59,32
57,31
56,31
47,31
43,31
36,30
35,29
31,29
30,29
30,29
31,28
31,28
31,29
30,28
31,28
32,28
32,28
31,28
31,28
31,28
30,28
28,28
29,28
27,27
27,27
27,28
27,28
27,29
27,31
27,32
27,33
28,36
29,39
29,44
30,47
32,49
36,57
37,65
40,67
40,66
43,67
44,70
46,71
50,75
52,79
54,86
54,84
54,82
52,86
49,87
46,78
41,66
40,66
38,61
39,53
37,48
37,39
38,35
41,32
41,32
42,31
41,30
40,30
38,29
36,29
33,28
32,27
32,28
33,28
33,28
33,28
32,28
31,29
28,28
28,28
27,28
27,29
27,29
27,30
27,30
28,32
30,36
31,39
33,44
34,48
35,54
35,58
36,60
36,65
37,67
38,71
40,74
40,81
41,84
41,84
40,77
39,72
38,67
36,51
35,46
34,35
34,30
35,29
36,28
36,28
36,28
36,28
36,28
34,28
33,28
32,28
32,28
32,27
32,27
31,27
33,27
34,27
35,27
34,27
34,27
33,27
32,27
31,27
26,27
26,27
26,27
27,27
27,28
28,29
28,33
29,37
30,41
33,52
35,58
40,75
42,86
44,92
46,105
48,104
48,119
46,123
44,121
42,113
41,101
41,97
43,86
41,77
46,58
51,53
54,43
53,40
56,37
63,31
63,30
64,29
63,29
61,29
54,29
51,29
40,29
36,28
36,28
35,28
36,28
36,28
37,28
36,28
35,28
34,27
34,27
33,27
33,26
31,26
27,27
26,27
27,27
27,27
27,27
27,28
27,28
27,30
27,34
28,37
29,42
30,45
33,53
35,60
39,79
40,86
41,98
45,115
46,123
49,131
50,140
47,129
49,124
48,117
45,101
44,90
43,81
47,61
49,51
54,40
55,33
58,31
59,29
58,29
54,28
50,28
46,28
41,27
40,27
39,27
37,27
37,27
36,27
36,27
35,27
35,27
33,27
32,26
32,26
33,26
27,29
26,30
27,31
27,33
27,37
27,39
27,40
29,44
30,46
32,56
34,63
35,67
38,85
39,90
40,102
41,104
41,108
43,110
43,104
48,85
51,77
56,67
63,50
67,41
71,32
73,30
71,29
67,28
61,28
51,27
48,27
44,27
39,27
37,27
36,27
36,27
37,27
36,26
34,27
33,26
33,26
31,26
30,26
30,26
30,27
30,27
30,27
29,26
29,26
29,26
28,27
28,27
28,27
29,27
29,27
29,27
29,28
29,30
30,36
31,39
34,48
37,52
37,59
40,73
40,84
43,98
43,101
44,105
46,103
47,98
47,99
47,103
43,99
42,100
38,89
36,83
36,80
39,58
42,45
50,34
52,32
56,31
60,28
59,28
52,27
48,27
46,27
43,27
41,27
40,27
40,27
41,27
40,27
40,27
38,27
37,27
35,27
32,27
31,27
30,27
28,27
28,27
27,28
28,28
28,28
28,31
29,33
30,40
32,44
36,55
38,63
42,73
43,79
46,85
47,96
48,104
48,122
48,124
46,120
42,109
42,103
40,77
37,62
37,49
36,39
38,35
41,31
43,30
47,30
52,28
53,28
52,27
49,27
48,27
43,27
41,27
40,27
39,27
38,27
36,27
36,27
35,27
34,27
34,27
33,27
33,27
32,27
31,27
31,27
30,27
29,27
28,27
29,27
28,27
28,27
28,27
28,29
27,29
28,32
28,34
29,36
31,39
32,42
33,48
35,53
39,68
40,76
40,92
40,97
41,101
40,108
42,109
41,104
41,104
42,108
41,108
40,103
40,95
40,89
44,75
44,61
47,53
54,43
56,37
62,32
66,30
63,29
61,28
58,28
50,27
44,27
43,27
40,28
40,28
41,28
41,28
40,27
40,27
39,27
36,26
27,33
27,36
28,39
28,40
30,46
31,50
34,55
35,61
37,70
40,78
40,84
43,95
44,98
46,101
45,97
44,95
42,87
42,80
43,62
43,57
45,46
48,38
49,32
48,29
47,29
43,28
40,28
38,28
36,27
36,27
35,27
35,27
35,27
35,27
35,28
35,28
34,28
34,27
34,27
33,27
33,27
32,27
32,26
31,26
31,26
31,26
30,26
30,26
30,26
30,26
28,27
28,28
28,29
28,29
28,31
28,34
28,37
28,40
28,43
29,48
31,52
35,64
37,71
38,76
40,90
41,95
41,120
42,127
43,135
44,137
44,137
45,129
44,116
43,92
43,78
45,68
49,53
52,47
56,35
58,33
59,32
56,32
53,32
48,30
44,30
43,29
42,28
42,27
41,26
40,26
40,26
40,26
40,26
39,27
38,27
37,26
36,26
37,27
33,26
32,26
28,27
27,27
27,28
27,29
27,29
26,30
26,31
27,37
28,39
29,44
32,56
34,60
39,74
40,81
44,88
47,105
47,111
47,117
47,116
49,117
48,111
47,115
47,107
47,100
52,85
54,78
58,62
59,49
61,40
63,31
61,31
56,31
52,31
50,31
48,30
45,29
41,28
41,28
42,27
40,27
40,27
38,27
38,27
37,26
34,26
33,26
33,26
34,26
34,26
34,27
28,27
28,28
27,28
26,29
27,30
28,33
28,34
29,38
31,45
32,51
36,66
38,70
39,78
40,93
41,95
42,100
42,104
41,107
41,106
40,104
40,97
40,98
40,93
40,81
38,77
39,67
38,62
38,56
40,44
43,39
45,30
48,28
49,27
51,27
50,27
45,28
41,27
38,27
37,27
36,27
35,27
36,27
38,26
39,26
39,26
37,26
35,26
34,27
34,27
33,27
27,29
27,29
27,29
27,29
28,31
28,32
28,34
30,37
32,40
35,49
35,52
36,60
38,72
39,81
38,97
38,103
37,106
38,105
39,101
37,82
38,75
39,62
41,43
42,35
48,30
50,29
51,29
54,29
53,29
53,29
53,28
49,29
49,29
48,29
45,28
44,28
43,28
45,28
45,27
42,27
42,27
41,26
40,26
37,26
33,26
33,26
32,26
32,26
33,26
32,26
28,26
28,27
28,29
28,31
29,35
29,38
29,39
31,42
31,42
33,47
33,48
35,54
39,66
40,75
42,89
42,101
44,103
46,111
45,115
44,121
44,121
43,129
44,122
43,117
44,104
44,94
45,82
49,57
53,50
66,40
73,37
76,33
81,31
80,31
73,30
67,29
60,28
47,27
46,27
42,27
42,27
42,27
40,27
40,27
38,27
37,27
36,26
36,26
35,26
34,26
29,25
28,26
28,26
28,26
29,27
29,27
29,29
30,30
30,33
30,34
31,36
32,40
32,41
34,42
35,44
35,46
35,51
37,54
38,63
39,69
39,78
40,95
40,109
42,127
43,133
43,131
44,123
43,117
44,98
41,87
40,74
40,57
44,53
48,42
51,37
68,30
72,30
76,31
75,30
77,30
70,30
61,29
50,28
46,28
44,27
38,27
37,27
36,26
37,27
37,27
27,28
27,28
27,28
26,28
26,29
27,30
28,34
28,36
29,39
30,43
32,47
33,57
36,62
36,70
39,79
40,93
42,111
44,122
44,124
43,120
45,118
43,113
42,115
41,106
41,104
41,108
40,109
41,99
44,83
46,72
48,65
55,46
58,42
66,35
74,33
74,32
76,32
73,33
69,32
64,31
63,30
51,29
48,28
46,27
43,27
42,27
40,27
40,26
38,26
37,26
31,28
30,28
30,28
30,29
31,29
31,30
32,31
32,32
33,35
34,39
35,43
37,52
38,59
40,69
41,76
42,90
42,91
44,94
45,97
44,99
46,94
45,88
46,78
49,65
49,59
59,45
65,40
71,38
77,37
79,37
78,36
73,35
69,35
57,33
53,31
46,30
45,30
43,30
40,30
40,30
37,29
38,29
37,29
35,28
35,28
35,28
35,29
35,28
35,28
35,28
28,30
29,32
29,34
31,44
31,47
34,55
35,58
37,70
39,73
40,76
41,80
42,91
45,105
45,111
45,121
44,121
42,123
41,112
40,104
40,88
40,82
45,58
53,47
57,44
68,40
70,37
76,36
73,36
72,36
63,34
59,34
52,33
48,31
46,31
44,29
43,29
40,28
39,28
38,27
37,27
37,27
36,27
37,27
37,27
35,27
35,27
35,27
35,27
35,27
36,27
29,33
29,33
29,34
29,34
29,33
29,34
30,34
30,38
30,40
31,54
32,61
33,69
37,85
38,91
40,110
40,109
41,108
42,108
42,103
42,93
42,86
43,74
50,64
55,56
68,44
75,40
81,38
91,35
90,34
82,31
71,31
71,30
60,29
55,29
49,28
46,28
47,28
42,28
40,27
39,28
38,28
36,27
36,27
36,27
38,27
37,27
36,26
35,27
35,26
34,27
28,28
28,29
28,29
28,30
29,32
29,32
28,36
28,37
29,39
30,43
31,44
35,53
37,61
38,71
40,86
41,102
43,121
41,128
41,131
39,122
39,123
37,101
36,93
35,78
38,59
40,51
48,40
56,39
63,34
75,32
78,32
79,32
76,32
73,33
62,33
56,32
49,31
47,30
45,30
42,28
41,28
38,27
37,26
36,26
35,26
34,26
34,26
33,26
33,26
32,27
32,29
33,30
32,32
32,34
31,38
32,43
32,45
34,52
34,57
36,62
38,70
40,78
42,93
43,98
44,105
47,114
48,122
49,119
49,118
48,116
45,106
45,98
42,73
41,65
43,58
46,42
52,39
65,34
74,34
77,34
73,33
71,33
65,31
59,30
54,29
43,27
42,27
42,27
41,28
40,28
37,28
36,28
35,28
35,28
34,27
33,27
33,27
31,27
31,27
30,27
29,26
30,26
30,27
30,27
30,26
30,26
30,27
30,27
29,27
29,27
29,27
28,27
28,26
28,26
28,26
28,27
27,28
28,29
27,30
27,31
27,33
27,34
27,34
29,40
30,45
34,52
36,61
39,68
43,94
44,109
47,126
47,132
46,135
44,124
44,112
45,83
49,69
55,58
71,43
78,41
91,36
96,34
95,33
82,31
75,30
57,29
49,29
43,28
35,27
34,27
29,27
30,26
30,26
30,26
30,26
31,26
31,26
31,26
31,26
30,26
30,26
28,27
27,27
27,27
27,28
28,31
28,33
29,40
30,45
30,51
33,61
34,63
36,73
37,81
38,84
40,91
40,91
40,94
40,92
41,92
41,83
40,79
42,65
45,59
47,54
49,43
55,39
67,33
70,31
70,31
66,30
64,30
60,30
57,29
52,28
45,28
44,28
45,28
44,28
41,28
28,26
28,26
28,26
27,26
27,26
27,25
26,26
26,26
26,26
26,26
26,26
26,27
26,26
26,26
26,26
27,27
27,28
27,32
28,34
29,38
30,42
31,47
34,65
38,77
40,101
42,109
44,115
47,122
48,125
48,118
47,114
48,109
46,105
47,98
44,86
43,80
45,71
54,54
59,46
73,37
76,35
76,34
74,33
69,32
56,29
49,28
40,27
35,26
33,26
31,26
28,26
28,26
29,26
29,26
29,26
29,26
29,26
29,26
29,26
29,27
29,27
29,27
28,27
28,27
28,27
27,27
27,27
27,27
27,28
27,28
27,29
26,29
27,32
28,36
31,45
33,50
34,56
39,68
41,77
47,95
49,105
48,103
47,101
46,100
44,89
45,76
56,69
82,54
94,50
119,44
120,41
124,40
110,36
103,36
74,33
60,31
51,29
46,28
44,28
42,27
28,26
29,26
30,26
30,26
30,26
30,26
30,26
29,26
29,26
29,26
28,26
28,25
29,25
28,26
28,26
27,26
27,26
27,26
27,27
27,28
28,29
28,29
29,32
29,35
30,39
30,40
31,43
32,52
33,56
36,69
39,76
40,81
44,90
48,95
51,96
50,100
50,101
49,101
47,98
44,84
45,77
43,72
52,53
52,43
58,32
59,31
58,31
56,30
53,29
42,28
28,26
28,26
28,26
28,26
27,27
27,28
26,29
26,34
27,37
29,42
34,51
36,57
42,73
47,79
53,92
54,101
54,111
52,124
51,118
48,125
46,126
45,121
43,98
45,86
45,65
46,48
49,44
57,32
60,31
61,31
62,30
59,31
54,29
48,29
44,28
43,27
40,27
40,26
39,26
39,26
37,26
36,26
36,26
36,27
34,26
33,26
33,26
33,26
33,26
33,26
27,26
27,26
27,26
28,27
28,28
28,30
29,36
29,40
30,44
33,52
35,58
42,76
45,86
47,100
47,119
49,125
49,131
47,127
46,120
41,100
42,90
41,68
41,58
43,51
56,45
65,40
74,33
76,33
76,33
75,33
69,32
54,30
48,29
46,29
46,28
44,28
43,28
42,27
42,28
41,27
40,27
39,27
37,27
36,27
36,26
37,27
39,27
40,26
44,27
44,27
28,26
28,26
28,26
28,26
27,26
27,26
28,28
29,29
30,32
32,40
34,44
35,52
37,57
40,67
40,75
41,85
45,96
46,103
49,113
51,119
52,120
52,114
51,113
49,103
49,95
45,77
41,72
43,63
47,47
49,44
53,39
57,36
60,36
61,34
60,35
55,33
54,32
52,31
50,30
49,29
51,29
52,29
51,29
55,30
56,30
56,30
55,30
55,30
53,30
52,30
26,25
26,25
26,25
27,25
27,25
27,26
27,27
27,28
28,31
28,34
29,39
31,52
33,59
37,67
40,76
40,78
45,92
47,91
49,102
50,108
50,110
50,116
49,116
47,113
48,107
46,100
44,92
44,83
47,66
49,59
56,53
63,43
66,40
64,34
62,33
59,33
48,30
44,30
40,28
40,28
41,28
42,28
42,28
44,28
47,28
47,28
48,27
49,28
51,28
53,28
26,26
26,26
26,26
27,26
28,26
28,27
29,28
29,30
30,35
30,39
32,45
32,50
34,56
35,64
37,69
40,79
40,89
40,94
42,98
43,106
44,115
45,111
42,106
41,105
41,100
40,87
38,81
36,65
34,58
36,53
40,45
42,40
48,33
50,31
52,31
56,31
56,31
53,31
53,30
52,30
50,30
49,30
47,30
45,29
47,29
44,29
43,29
43,28
43,28
41,28
27,28
27,28
27,32
27,35
27,37
29,46
30,51
32,57
33,58
33,60
35,62
36,61
37,64
38,68
38,70
40,76
40,77
40,84
40,87
40,84
38,78
37,73
36,61
37,53
38,40
41,37
43,35
52,31
54,30
56,30
55,30
54,29
49,29
47,28
42,27
42,27
43,27
44,27
44,27
47,28
46,28
47,28
46,28
44,28
43,28
40,27
39,27
37,27
37,27
40,27
28,33
28,34
28,36
28,37
29,40
30,42
31,44
32,51
34,55
37,70
38,73
40,83
43,98
44,109
45,119
47,120
46,118
44,114
43,112
40,86
40,76
40,67
40,48
44,43
48,30
51,29
54,29
60,29
62,29
60,29
59,29
57,29
53,29
51,29
52,28
55,28
54,28
53,28
51,28
51,28
49,28
47,27
43,27
43,27
48,27
51,27
50,27
49,27
49,27
48,27
29,35
29,36
29,38
29,40
30,42
34,50
36,55
40,72
40,81
42,86
44,94
44,99
43,106
43,100
42,103
42,97
43,97
43,91
42,88
42,82
41,73
40,69
40,56
40,49
40,47
43,38
46,33
61,31
67,30
70,30
76,30
78,30
73,30
68,30
63,29
61,29
58,29
53,30
56,30
57,30
57,30
52,30
49,28
49,27
50,27
48,27
47,27
43,27
40,27
40,28
29,28
29,29
29,31
29,33
29,35
31,40
31,42
34,53
35,56
36,64
39,73
40,79
41,102
41,122
42,129
44,164
43,167
42,180
41,174
42,170
42,140
42,125
40,101
40,80
43,61
43,53
51,48
58,38
61,32
63,28
63,28
63,28
56,27
55,27
46,26
42,26
42,26
40,25
38,25
37,26
37,26
37,26
36,26
36,26
35,26
34,26
34,26
33,26
32,26
32,26
28,26
27,26
27,27
27,28
27,29
27,30
27,31
28,33
28,35
29,36
30,40
32,44
34,53
35,60
35,62
37,76
36,84
36,90
35,88
34,85
33,72
33,60
38,46
40,40
42,32
47,28
51,28
55,28
55,28
56,28
52,28
51,27
49,27
49,27
48,27
45,27
44,27
44,27
43,27
42,27
43,27
40,27
40,27
40,27
38,27
36,27
35,27
34,27
34,27
35,26
26,26
26,26
26,26
26,27
27,27
29,30
29,33
31,37
33,41
34,43
36,50
37,54
38,59
39,63
39,64
38,63
36,59
36,51
39,47
41,42
53,35
59,33
73,30
76,30
79,31
77,30
72,29
64,28
59,28
54,27
49,27
48,27
45,26
44,26
43,26
41,26
41,26
40,26
40,25
41,25
40,25
39,25
39,25
38,25
37,25
34,25
34,25
33,25
33,25
32,25
27,28
27,31
28,32
27,34
28,35
28,37
30,42
30,48
32,54
34,59
35,68
37,79
38,80
39,83
38,85
38,82
37,67
39,61
43,48
50,42
55,38
67,31
72,31
76,31
73,31
72,30
61,29
55,28
50,29
46,28
44,28
42,28
41,27
40,27
39,27
38,27
37,26
38,27
38,27
40,27
39,27
40,27
37,27
36,27
36,27
36,27
35,26
33,26
34,26
34,26
28,26
29,26
30,26
29,27
29,28
28,29
28,31
28,32
29,35
30,39
32,44
32,48
32,49
33,53
33,55
32,53
31,50
30,46
33,40
35,37
40,32
44,31
49,29
57,30
61,30
62,29
62,29
61,29
59,29
56,28
51,28
48,29
48,29
46,28
43,28
42,28
42,28
43,28
42,27
41,27
40,27
39,27
38,27
36,27
36,26
36,26
35,26
34,26
33,26
33,26
29,32
30,35
31,40
33,51
36,59
38,70
42,95
45,113
48,144
50,148
53,161
56,165
55,157
52,157
50,158
52,137
59,109
64,97
73,83
81,62
88,52
94,34
93,34
77,33
69,32
68,30
55,29
53,28
47,28
47,28
47,28
44,28
43,27
42,27
40,27
40,27
37,27
37,27
36,27
35,26
36,26
36,26
37,27
38,27
37,27
38,27
37,27
37,27
37,27
36,26
30,26
29,27
29,27
28,27
27,26
26,26
26,26
26,26
26,26
27,26
27,26
27,26
28,27
28,27
29,29
29,30
31,37
32,40
34,46
38,66
40,74
43,98
45,105
46,114
47,118
47,121
47,111
46,97
49,88
61,66
65,59
81,46
88,39
89,36
88,32
85,32
73,31
60,30
59,29
52,28
52,27
51,27
50,27
48,27
44,27
46,27
42,27
41,27
40,27
38,27
28,29
29,29
29,29
29,31
30,34
31,37
34,51
35,55
40,76
42,83
44,108
45,114
45,125
45,124
44,115
42,114
42,107
40,90
41,65
42,59
47,50
50,43
58,37
70,32
71,32
76,31
74,30
72,30
63,29
59,29
53,28
47,27
48,27
46,27
45,27
43,26
42,26
40,27
37,26
37,26
35,26
36,26
37,26
37,26
37,26
37,27
38,26
35,26
33,26
34,26
32,46
35,55
37,62
42,81
44,92
45,100
46,123
47,125
48,133
48,129
45,109
46,97
45,80
61,60
74,47
87,40
96,38
98,36
100,35
94,35
76,32
70,31
64,30
56,28
54,28
47,27
44,28
44,27
41,27
40,27
38,27
37,26
38,26
38,26
37,26
38,26
39,26
40,26
40,26
40,26
40,26
40,26
38,26
37,26
37,26
33,26
32,26
31,27
32,27
31,26
30,35
32,40
33,46
37,59
40,68
41,83
42,91
44,99
46,107
47,116
46,117
46,114
46,110
44,96
43,88
41,65
41,60
43,50
58,41
61,39
72,34
76,33
79,33
80,32
76,31
64,30
59,30
54,28
50,28
45,28
44,28
43,27
43,27
43,27
40,27
40,28
40,27
40,27
38,27
36,26
35,26
36,26
35,26
34,26
35,26
35,26
35,26
35,26
35,26
33,26
31,26
30,26
30,26
30,26
30,26
30,26
30,26
30,26
29,26
29,26
29,25
28,26
28,26
27,26
27,26
27,26
27,26
27,26
27,26
27,26
26,26
26,26
26,27
27,27
26,28
26,29
30,37
32,41
35,46
43,61
47,78
55,107
58,127
59,132
61,149
59,147
64,126
65,113
76,99
88,70
93,58
110,44
108,41
100,40
89,37
80,35
71,31
63,29
52,28
49,28
30,26
30,26
30,26
30,26
29,26
29,26
29,26
29,26
29,26
29,27
28,27
28,27
28,28
27,29
28,29
28,33
29,36
32,42
34,51
39,65
40,79
45,91
51,113
51,118
52,132
51,131
52,140
47,129
46,123
43,100
44,83
44,74
46,52
48,46
53,32
56,30
59,30
58,29
58,28
55,28
54,27
51,27
46,27
45,28
41,28
40,28
40,28
40,27
40,27
40,27
28,27
28,28
28,28
29,29
28,29
27,30
27,31
27,32
28,34
30,36
33,41
36,45
39,54
40,60
42,64
43,75
44,82
43,93
44,102
45,107
44,109
42,107
43,99
41,89
41,84
40,60
41,52
43,40
44,36
48,32
52,29
54,29
56,29
56,28
55,28
52,28
51,27
48,27
44,27
44,27
44,27
44,27
40,27
40,27
40,27
39,27
37,27
35,27
34,27
33,27
30,27
29,27
29,27
29,27
28,27
28,27
27,27
27,27
27,30
28,31
28,34
30,40
31,44
35,54
37,64
39,70
40,88
42,95
46,112
47,119
48,121
48,122
48,122
46,111
45,100
45,92
48,74
52,62
59,48
60,43
65,38
67,33
70,33
67,31
66,31
62,30
56,29
54,29
51,28
50,28
47,28
44,27
43,28
41,27
40,27
40,27
39,27
40,27
37,26
36,26
30,26
30,26
30,26
30,27
30,28
29,28
29,29
29,31
30,34
31,40
32,44
36,53
38,58
40,61
43,70
43,78
43,90
43,91
43,92
41,91
40,89
39,76
38,69
38,60
40,49
40,46
46,38
51,37
51,33
56,31
55,31
54,29
52,29
51,28
47,27
44,27
44,27
43,28
40,27
39,28
39,28
39,28
38,28
36,27
36,27
35,27
34,27
34,27
33,27
32,27
30,25
30,25
29,25
28,25
28,25
28,25
29,26
30,26
30,26
31,27
31,28
31,30
31,33
32,36
33,42
34,46
36,56
36,58
37,64
40,70
41,70
43,71
42,69
40,67
39,60
37,56
34,46
34,41
35,39
42,33
44,32
50,28
54,28
55,28
57,28
56,28
51,28
48,28
47,28
42,27
40,27
36,27
36,27
35,27
36,26
36,26
36,27
35,27
34,27
34,27
32,26
32,26
32,26
31,26
30,26
30,27
30,26
29,27
29,26
29,26
31,26
32,26
32,26
31,26
31,26
31,26
30,26
30,26
28,26
28,26
28,29
28,30
29,33
30,36
32,40
37,56
39,69
41,88
43,97
45,105
48,123
49,132
51,136
51,141
52,139
51,144
51,144
46,119
44,109
45,99
48,77
53,62
66,45
69,40
71,38
72,33
71,32
63,31
57,30
49,29
29,26
29,26
30,26
30,26
29,26
29,26
29,26
30,26
29,26
29,26
29,26
29,26
29,26
29,27
28,28
28,28
28,29
27,30
28,32
31,35
32,37
33,40
35,45
36,50
38,60
39,64
38,66
38,73
40,77
40,79
39,76
38,70
38,62
39,56
43,45
45,40
48,35
51,31
54,31
56,30
55,29
52,29
47,28
46,27
43,27
43,27
40,27
39,27
39,27
39,26
31,27
32,26
31,26
31,26
30,26
31,26
30,26
30,26
30,26
29,26
28,26
28,26
28,28
28,28
28,29
29,33
29,37
33,46
35,53
37,56
41,67
43,70
45,78
46,81
46,84
44,86
42,84
39,79
38,71
38,65
38,50
40,43
46,34
50,31
53,30
56,30
57,30
56,29
56,29
56,29
55,28
53,28
52,27
51,27
50,27
45,26
42,26
39,26
38,26
37,27
28,26
28,26
27,25
27,26
28,26
28,27
28,27
28,28
29,29
29,31
29,36
30,40
32,45
36,57
37,65
40,89
40,101
42,111
44,123
43,131
42,136
41,129
41,121
40,100
38,88
39,64
40,59
44,47
52,38
54,34
62,31
66,31
66,30
65,30
64,29
62,28
64,28
64,29
63,29
59,29
59,29
57,29
58,29
49,28
46,28
43,27
44,27
42,27
38,27
38,27
29,26
28,26
28,26
28,26
28,26
28,26
27,26
27,26
27,26
27,25
27,25
27,26
28,26
28,27
29,30
30,34
31,36
33,47
36,53
41,71
43,79
43,89
48,108
51,113
52,120
52,120
51,120
52,123
52,121
48,102
46,92
45,82
55,65
60,56
81,36
85,34
88,33
90,32
84,31
81,30
71,30
64,29
63,28
60,28
57,28
54,27
47,27
45,27
43,27
42,27
28,26
28,26
28,26
27,26
28,27
28,27
28,27
27,27
27,27
26,27
27,28
28,31
29,36
31,40
33,44
37,54
38,56
40,61
40,64
41,67
40,79
40,78
40,90
42,97
43,99
44,106
44,107
43,100
43,92
44,82
44,65
43,55
46,41
49,36
54,33
55,31
55,30
56,30
57,30
59,30
56,29
54,29
54,30
54,30
54,30
50,30
47,29
46,30
45,29
43,29
30,34
31,37
33,40
36,52
38,57
40,63
41,66
42,72
43,87
46,98
47,107
47,116
47,119
46,123
43,122
40,99
39,91
36,69
36,62
38,50
41,38
43,35
49,31
51,31
51,30
50,28
52,28
51,27
48,27
50,27
49,27
48,28
45,28
44,27
42,27
40,27
38,26
37,26
37,26
36,26
35,26
33,26
33,26
34,26
34,26
35,26
34,26
35,27
35,27
33,27
29,26
28,26
28,26
28,26
29,26
28,26
28,27
28,31
29,34
31,38
33,49
35,60
38,76
39,87
41,103
45,134
45,138
49,142
50,147
50,142
49,125
47,112
46,83
46,70
48,64
51,48
53,41
58,33
59,32
61,31
61,30
60,30
56,29
56,29
55,29
56,29
55,29
53,28
54,28
54,28
53,28
51,27
48,27
46,27
46,27
45,27
44,28
47,28
47,28
48,28
29,37
31,44
33,49
36,65
38,72
39,80
43,91
44,102
48,109
49,115
49,116
50,120
50,124
46,117
45,112
42,105
43,83
45,73
51,51
54,43
61,39
69,33
74,33
71,32
69,31
65,31
56,29
57,29
48,29
47,29
46,28
45,28
44,27
43,27
43,27
41,26
41,26
41,27
41,27
41,27
41,27
40,27
40,27
40,27
40,27
40,28
40,28
40,27
42,27
44,27
30,30
30,31
29,32
30,36
30,37
31,39
30,43
30,47
34,57
36,60
38,65
40,72
44,81
48,107
48,117
48,130
49,133
50,142
48,152
48,146
45,117
44,100
43,93
42,68
43,54
48,39
53,36
58,32
65,31
71,31
71,32
71,32
70,31
68,31
63,31
60,31
58,31
59,32
58,31
56,31
61,31
67,31
78,30
86,29
88,30
99,30
103,30
102,30
97,30
88,30
28,29
29,32
29,38
30,41
32,49
34,55
36,59
41,69
42,72
44,81
44,87
44,92
43,103
42,104
41,104
41,102
40,97
42,80
46,63
57,48
67,44
74,39
84,32
88,31
89,31
85,31
80,31
67,30
64,30
57,30
55,30
52,30
52,30
53,29
50,29
49,28
49,28
48,27
47,27
46,27
46,27
45,28
44,28
43,27
42,28
43,27
42,27
42,27
42,27
44,27
32,27
33,27
33,27
32,29
32,32
33,40
33,43
36,52
40,78
42,89
48,124
49,127
51,137
47,143
48,150
43,129
40,119
39,104
36,86
39,74
46,60
54,51
60,48
73,38
78,37
81,35
80,34
79,33
70,33
64,33
62,32
60,32
64,32
62,32
65,31
67,31
68,30
66,30
63,30
63,29
65,29
59,29
56,29
56,29
55,28
55,28
52,27
53,27
52,26
50,27
34,46
38,52
40,58
42,70
43,77
45,88
43,104
44,111
42,118
42,121
40,114
37,97
36,85
35,64
34,53
36,46
38,34
40,33
43,28
48,28
49,27
55,27
56,27
59,27
61,28
60,28
55,28
52,28
45,28
44,28
41,28
41,27
41,27
43,27
42,27
40,27
40,27
39,27
38,27
37,27
37,27
37,27
37,27
36,27
37,27
38,27
39,27
40,27
40,27
42,27
30,39
31,41
32,50
34,52
35,55
40,68
41,76
43,95
45,104
47,110
48,121
48,122
45,122
46,123
45,117
44,105
44,99
45,78
49,68
54,62
62,45
68,37
72,31
75,31
76,30
70,29
65,28
59,28
56,28
55,28
48,29
49,29
44,29
43,28
42,28
43,28
45,27
44,27
43,27
44,27
44,27
43,27
41,27
40,27
40,27
40,27
40,27
40,28
40,28
41,28
29,26
30,27
30,27
30,27
31,27
30,28
29,28
29,29
30,31
31,34
33,42
34,50
36,56
40,69
42,79
47,100
51,108
52,115
52,114
53,118
54,111
54,100
53,85
54,79
55,69
63,57
69,51
85,41
96,40
103,36
109,36
111,36
114,35
110,35
98,33
95,33
90,32
79,30
70,31
60,30
59,30
57,30
55,30
57,30
57,29
58,29
58,28
57,28
55,29
53,29
27,26
27,26
27,27
27,27
28,27
28,27
27,27
27,27
27,29
27,29
28,30
28,35
29,39
31,40
34,50
36,55
39,66
40,72
40,77
42,85
43,89
43,99
42,102
42,104
40,102
40,100
41,85
41,73
45,67
54,51
60,45
72,38
75,34
78,34
79,34
82,34
77,33
75,33
68,33
61,31
59,31
52,31
51,31
48,30
47,29
48,29
50,28
52,28
52,28
54,28
34,49
38,62
40,68
40,75
44,106
46,121
48,133
48,139
49,137
50,140
50,126
48,105
46,97
47,90
55,75
59,67
70,54
83,47
92,42
104,34
101,35
95,34
95,33
91,33
76,33
68,32
68,32
67,33
68,33
65,32
62,31
71,30
69,30
72,29
83,29
90,30
91,29
92,30
90,29
97,30
90,30
85,29
81,29
81,29
75,29
74,29
62,28
60,27
55,27
51,27
31,34
31,36
31,38
32,43
33,48
33,53
33,59
35,62
38,72
39,75
40,80
40,86
42,86
44,91
45,94
44,88
44,88
43,84
46,75
45,63
53,51
61,47
64,44
74,37
74,35
77,33
74,33
75,32
68,31
62,31
65,30
64,30
64,30
57,30
57,29
57,29
55,28
54,28
55,29
61,29
67,29
73,29
73,30
76,30
74,30
68,29
66,29
55,28
53,28
51,28
32,38
32,40
34,50
35,55
38,62
41,70
43,74
46,79
47,86
48,90
51,108
51,114
51,123
49,133
50,144
48,147
45,136
41,127
41,123
41,121
40,94
40,81
42,64
43,55
46,49
49,37
52,33
60,32
62,31
62,32
61,32
61,32
59,32
57,32
57,31
62,31
66,31
69,31
70,30
68,29
65,29
59,29
58,28
56,28
55,28
52,28
54,27
54,27
52,27
51,27
36,28
36,30
34,31
33,37
33,40
33,43
35,52
36,58
40,71
43,79
45,86
50,109
52,126
58,145
58,151
60,161
60,172
58,170
56,149
53,142
52,126
59,97
63,79
78,55
89,46
96,40
112,33
117,33
114,32
103,31
98,31
81,29
69,29
61,28
60,28
58,28
56,28
56,28
59,29
56,28
52,28
54,28
55,28
54,28
55,27
51,27
48,27
43,26
43,26
41,26
36,42
38,49
39,49
41,55
44,63
45,66
52,76
52,86
55,98
59,106
67,122
67,130
63,135
62,141
61,144
69,119
76,106
79,95
94,70
98,52
100,37
96,36
84,34
65,31
53,31
46,29
46,29
44,29
44,29
45,28
46,28
47,28
47,27
48,27
47,27
45,27
44,27
43,27
41,27
41,27
40,26
40,26
40,26
42,26
41,26
41,27
41,27
42,27
40,27
40,27
35,31
35,32
36,33
36,35
37,38
37,40
37,41
39,49
42,53
45,63
48,69
49,74
54,98
56,113
57,132
56,134
56,133
51,129
49,125
45,99
47,87
48,72
61,60
74,55
96,42
99,38
101,35
100,33
97,32
87,30
78,30
68,30
67,29
66,29
61,29
56,29
48,28
49,28
47,28
45,28
45,28
45,27
47,27
48,27
50,27
50,26
49,26
48,26
49,27
45,26
30,33
30,34
31,35
32,40
33,43
35,52
36,59
37,61
40,75
41,85
42,94
43,92
46,97
48,100
50,103
48,100
48,101
49,95
47,86
53,80
62,63
72,56
95,42
109,39
115,34
118,31
116,31
104,30
95,30
84,29
66,29
60,29
56,29
52,29
50,29
48,28
47,28
46,27
46,27
46,27
47,27
45,26
42,26
43,27
41,27
42,27
40,27
41,27
40,27
39,26
31,35
32,37
32,38
34,41
38,43
39,49
42,56
43,57
46,63
48,68
49,69
48,68
46,66
43,60
43,56
42,52
47,43
51,39
61,35
63,35
68,34
73,34
70,32
64,31
61,31
57,30
55,30
53,30
51,30
52,30
52,29
50,28
47,28
48,28
46,27
43,27
43,27
41,27
40,27
39,26
36,26
34,26
34,26
32,26
32,26
32,26
33,26
32,26
32,26
31,27
30,32
30,34
31,35
31,37
35,40
37,44
41,57
43,63
44,71
47,83
47,91
46,91
44,90
44,86
43,83
42,79
41,67
41,62
47,58
60,52
71,45
81,38
88,37
90,35
83,34
77,33
63,31
60,30
59,31
56,30
55,30
55,30
52,30
50,29
49,28
53,28
47,27
45,27
48,27
47,27
44,27
40,27
40,27
40,27
41,27
41,26
40,26
39,27
38,26
37,27
28,27
28,27
28,26
29,27
30,27
30,28
30,29
30,29
32,33
33,37
33,40
36,49
38,57
41,65
44,69
45,75
46,82
45,87
50,95
51,98
50,96
46,97
47,103
54,103
55,96
57,91
60,84
64,80
72,60
76,51
70,42
65,35
63,32
63,31
57,31
54,31
48,30
47,30
42,29
40,29
39,28
40,27
40,27
39,27
40,27
41,27
40,27
39,27
38,26
39,26
37,46
38,48
43,59
45,65
48,76
48,78
48,82
47,86
44,92
47,93
49,87
54,80
62,71
67,65
90,48
102,46
106,39
109,37
105,36
101,36
92,36
83,35
63,33
57,33
52,31
52,30
50,29
47,28
47,27
47,27
48,27
48,27
47,27
48,27
49,27
52,27
55,27
57,27
56,27
55,27
54,27
53,27
48,26
48,26
48,26
48,26
49,26
49,27
47,27
43,27
29,27
29,27
28,28
29,27
29,28
28,29
29,30
29,31
30,32
29,34
30,36
32,42
33,46
35,52
38,64
41,73
45,91
46,99
47,113
48,127
49,129
46,123
46,120
50,102
51,88
69,63
74,59
85,50
96,40
104,38
106,33
98,33
88,30
80,30
79,30
67,29
62,29
63,29
61,29
58,29
50,29
51,28
53,28
52,28
53,28
51,28
50,28
51,27
51,27
49,26
29,32
29,32
30,33
31,36
32,38
35,40
39,48
40,54
43,62
46,63
48,68
49,79
50,87
49,93
49,93
47,91
46,87
45,80
48,62
51,55
64,44
69,41
71,39
76,35
79,34
77,33
68,32
64,32
63,32
61,32
54,31
56,31
55,31
59,30
61,30
57,29
54,29
53,28
54,28
53,28
52,27
52,27
52,27
50,26
49,26
42,26
40,26
39,26
40,26
41,26
42,64
47,78
52,83
54,90
59,108
61,113
62,113
62,110
61,106
55,97
51,93
51,73
54,68
61,59
71,49
79,41
92,37
100,35
100,34
94,34
88,34
79,33
69,32
63,31
56,31
54,30
49,28
48,28
45,28
46,28
43,28
40,27
42,27
44,27
43,27
42,27
43,27
42,27
40,27
40,27
39,27
39,27
40,26
40,26
38,26
38,26
37,26
37,26
36,26
36,26
33,27
33,27
31,28
30,28
29,28
29,28
30,28
30,29
31,29
32,29
32,30
32,31
34,35
34,36
35,40
36,42
37,46
42,54
44,58
46,71
49,74
50,78
50,81
52,84
47,75
45,68
42,56
43,49
47,44
50,35
54,33
56,30
56,28
59,28
55,28
54,28
50,28
51,28
52,28
49,27
46,27
41,27
41,27
38,27
36,26
38,26
42,27
41,27
43,27
42,27
31,28
31,28
30,29
29,30
29,30
29,30
29,30
29,33
30,36
32,46
33,51
34,58
37,73
40,76
44,100
45,113
47,117
48,124
49,122
50,112
50,97
51,85
66,58
73,47
86,39
95,37
100,36
103,35
99,34
87,32
79,31
78,31
70,31
69,31
63,31
61,30
60,29
55,28
53,28
49,27
47,28
50,27
49,27
51,27
50,27
50,27
49,27
47,27
46,27
43,27
29,29
29,31
31,36
32,40
35,49
37,52
38,58
40,69
43,74
45,82
46,82
46,85
49,93
49,97
49,99
49,97
50,92
51,85
49,78
54,62
60,53
71,42
72,39
79,37
80,33
78,32
71,30
70,30
63,29
55,29
53,29
51,29
50,28
49,28
45,28
44,28
43,27
42,27
42,27
40,27
40,26
41,26
40,26
40,26
37,26
37,27
35,27
33,27
32,27
31,27
29,31
30,32
31,34
33,38
35,40
40,48
41,52
46,61
50,80
51,90
55,107
55,112
56,119
52,113
50,109
46,88
47,78
43,67
48,49
52,45
61,38
63,36
66,35
70,35
68,35
66,34
65,33
63,33
65,32
61,31
60,29
57,28
57,28
51,27
50,27
49,27
48,27
47,27
45,27
44,27
44,27
44,27
41,27
40,27
39,27
38,27
37,27
37,27
36,27
36,27
29,28
28,28
28,28
28,28
29,28
30,29
30,31
32,35
33,38
33,41
36,50
40,56
47,68
48,75
51,83
57,97
59,105
60,110
61,110
57,103
54,97
53,93
53,82
55,75
59,69
70,64
74,58
77,45
80,39
83,35
77,32
78,31
76,30
78,31
74,30
70,30
72,29
67,29
66,29
57,28
54,28
57,28
54,28
52,28
50,28
50,27
50,27
51,27
51,27
53,27
33,30
34,31
35,32
35,34
36,36
37,41
37,45
36,52
38,57
39,66
40,77
43,78
46,80
47,82
47,83
46,83
47,83
45,81
44,81
43,78
45,69
46,60
51,46
51,42
52,37
57,31
61,30
60,29
56,29
56,29
56,29
54,29
49,28
50,28
51,28
47,27
48,27
49,27
48,27
47,27
50,27
49,27
49,27
49,27
50,27
51,27
49,27
45,27
44,27
46,27
27,27
27,27
28,27
27,28
28,28
28,29
28,29
29,30
29,30
30,32
30,33
30,34
30,37
30,38
32,41
33,45
33,49
37,60
40,69
42,84
45,88
46,97
48,119
47,129
47,124
47,121
47,111
50,95
57,76
72,49
85,44
90,40
103,37
106,36
99,35
95,33
88,32
72,31
63,30
55,30
53,30
51,30
48,29
48,29
46,29
47,29
52,29
53,28
51,28
51,28
33,51
34,56
36,63
37,69
38,72
40,81
44,81
50,87
53,91
57,101
59,102
59,105
58,104
56,104
52,102
51,93
49,84
51,74
55,68
63,56
69,47
77,38
89,34
96,32
102,31
105,30
103,30
101,29
104,29
93,29
86,29
74,29
72,29
67,29
62,29
61,28
55,28
55,28
55,28
57,28
52,28
47,27
47,27
44,27
45,27
44,27
41,26
40,26
41,26
41,26
33,30
35,32
36,36
37,40
38,44
40,57
40,62
44,73
45,78
47,85
50,95
52,100
57,111
58,114
59,114
59,110
59,103
60,88
61,76
66,65
79,52
86,44
88,36
88,34
88,33
86,32
86,31
75,31
72,30
74,31
72,30
68,30
64,29
61,29
63,28
59,28
56,28
55,28
55,28
50,28
49,28
49,28
50,28
51,27
50,27
52,27
50,27
52,27
50,27
49,27
31,27
31,28
30,28
31,28
32,28
32,30
32,31
35,33
35,35
36,36
37,42
37,47
40,61
41,67
41,70
44,76
45,79
52,88
53,91
54,94
55,92
53,90
52,82
51,74
56,59
63,48
71,39
77,38
86,35
92,33
90,33
75,34
71,34
66,34
58,34
57,33
55,32
54,31
56,30
59,28
59,27
56,27
55,27
55,27
56,26
56,27
51,27
46,27
46,27
42,27
31,40
32,40
33,41
35,46
37,48
40,56
42,61
44,63
50,79
54,92
54,117
55,122
55,133
54,135
54,131
53,108
56,96
63,78
79,52
84,46
89,38
89,34
92,32
86,31
74,31
69,30
71,30
75,30
73,30
68,30
65,30
63,30
61,29
64,29
60,28
60,28
57,28
55,27
54,27
52,27
49,27
49,27
46,26
46,26
46,27
42,27
40,27
38,26
40,27
40,27
28,28
28,28
27,29
27,30
27,31
27,35
28,38
28,41
29,43
30,46
33,53
36,59
40,67
41,71
45,80
49,100
48,110
51,118
54,123
54,130
55,131
54,130
52,111
51,106
56,98
62,74
71,63
89,49
95,43
99,40
99,32
98,32
84,30
77,29
70,28
64,29
62,28
60,28
58,28
57,28
51,27
47,27
45,27
46,26
44,27
40,27
40,27
39,27
37,26
37,26
29,27
28,27
29,28
29,29
30,31
31,34
31,37
34,44
36,49
38,52
41,61
43,65
46,78
47,85
47,96
49,110
50,111
49,120
48,119
49,116
51,95
52,85
61,68
62,59
66,49
68,37
73,36
72,31
73,30
62,30
58,29
55,29
50,28
48,28
45,28
43,28
42,28
46,27
48,27
47,27
45,27
45,27
44,27
41,27
39,27
36,27
37,27
36,27
36,26
35,26
27,34
28,35
30,38
31,40
32,41
36,47
37,49
40,59
41,65
42,70
45,86
47,94
49,102
50,104
49,105
51,111
50,104
49,86
50,77
52,73
54,60
54,48
56,38
59,34
59,32
58,30
57,30
58,30
59,31
62,31
63,30
62,30
62,30
60,29
59,29
53,28
51,28
47,28
47,27
47,27
46,27
46,27
45,27
46,27
46,27
47,26
46,26
47,26
47,26
46,27
41,69
42,79
46,91
48,95
52,105
55,114
55,118
55,124
55,129
54,123
52,111
57,105
63,82
65,66
80,41
88,38
94,38
95,36
95,36
91,34
82,33
82,32
72,31
71,31
70,31
75,30
72,30
67,29
66,29
66,29
64,29
65,29
56,29
55,29
56,28
55,28
54,27
51,26
52,26
50,26
47,26
46,27
43,27
43,27
40,27
40,27
43,27
46,27
44,27
44,27
37,59
38,62
39,67
42,74
44,74
47,83
48,90
48,94
50,107
53,111
51,107
50,102
49,88
49,80
48,66
49,53
56,51
68,41
72,35
73,33
78,32
77,31
73,30
69,30
63,29
61,29
59,29
54,29
53,29
51,29
53,29
53,28
57,28
56,28
56,28
54,28
51,27
49,27
47,27
45,27
45,27
45,27
44,26
42,26
40,26
40,26
41,26
41,27
40,27
39,26
32,38
33,40
36,49
39,54
40,61
43,74
47,90
50,106
51,112
52,117
53,128
56,141
56,132
56,134
58,138
57,137
55,121
53,112
52,93
60,75
64,60
73,42
77,37
87,32
88,32
87,32
82,32
84,34
78,34
83,35
80,35
92,35
97,34
107,32
109,33
111,33
111,32
108,31
96,30
92,30
95,31
103,30
102,29
99,29
101,29
100,30
95,30
92,30
82,29
86,30
31,37
32,40
33,42
35,45
39,55
41,60
48,71
50,75
56,100
56,118
58,143
59,160
56,166
57,180
54,175
53,161
50,143
48,141
49,105
46,90
57,69
66,61
84,44
91,37
92,35
93,34
91,32
83,32
86,30
80,30
82,29
79,29
82,28
80,29
85,29
92,29
83,29
97,30
104,30
101,31
101,31
95,31
88,30
82,30
73,29
76,28
74,27
77,27
74,27
71,28
29,26
29,26
29,26
29,26
29,26
29,26
28,26
28,26
29,26
29,26
29,27
29,27
30,27
30,28
30,29
30,34
30,37
30,41
30,53
31,56
35,66
38,72
39,78
41,93
43,99
49,106
48,115
48,115
48,121
48,117
48,106
51,99
56,81
59,76
66,61
71,47
74,41
75,36
79,35
76,34
71,33
69,31
62,31
58,31
56,30
51,29
48,29
44,29
45,29
45,29
30,29
30,29
30,31
31,33
32,36
34,38
37,45
39,50
39,54
40,66
43,71
45,91
46,103
45,108
48,121
48,131
50,146
50,141
52,132
54,129
54,123
51,98
50,91
53,66
53,52
59,47
74,39
83,36
100,34
100,34
98,33
91,31
88,30
76,31
71,31
66,32
66,31
67,31
66,30
65,30
61,29
58,28
58,28
59,28
60,29
63,28
62,28
61,28
61,28
60,29
35,27
33,26
33,27
32,28
32,29
31,29
31,32
31,33
33,37
33,38
33,40
36,44
38,46
41,61
42,65
46,74
51,88
55,95
57,118
62,127
62,128
62,131
62,131
63,129
63,121
56,96
55,87
60,74
74,60
75,51
101,40
122,38
134,37
143,35
140,35
137,35
128,35
105,34
96,34
97,34
98,33
91,33
86,31
82,30
82,29
73,29
81,28
80,28
81,27
85,27
41,52
40,56
43,67
43,72
47,81
48,88
53,89
58,101
57,102
56,102
54,96
53,92
52,79
54,69
62,53
67,45
79,40
94,38
102,36
105,36
108,36
101,34
90,34
84,33
76,31
77,30
71,30
72,30
71,29
69,29
70,29
74,29
80,29
82,29
84,28
83,28
86,28
83,27
84,27
78,27
74,28
66,28
61,28
62,29
56,28
56,28
52,28
55,28
56,27
52,27
37,29
37,30
36,30
34,32
33,34
33,40
32,43
34,48
37,55
39,62
42,70
44,79
44,83
48,94
50,97
50,98
49,95
48,92
51,76
56,69
63,53
68,46
82,41
89,40
96,39
95,36
90,35
84,34
81,34
74,33
64,31
65,31
64,31
66,30
73,31
73,30
73,30
78,29
82,29
79,28
73,28
74,28
68,27
64,27
60,27
55,27
52,27
51,27
53,27
56,27
32,26
31,27
31,26
31,27
29,28
29,29
29,30
29,30
30,30
31,31
32,32
34,35
35,36
36,39
38,49
38,56
40,68
42,73
47,90
49,105
52,111
56,122
57,130
62,135
63,133
60,130
56,110
55,97
62,76
67,65
76,57
88,45
96,43
104,38
98,36
99,36
92,35
93,34
82,32
81,32
87,31
81,31
74,30
68,30
65,30
62,29
60,28
54,28
53,27
57,28
34,26
32,26
31,27
31,26
31,26
31,27
31,27
32,29
33,30
33,31
34,33
35,36
35,39
37,48
38,50
39,58
39,62
40,68
43,74
44,72
47,80
50,79
51,81
53,81
54,84
51,77
51,71
51,66
54,57
58,51
71,41
83,38
95,36
106,33
105,32
105,31
96,31
97,31
79,31
75,30
72,31
72,31
69,30
68,29
71,29
73,28
75,28
74,27
74,28
71,28
30,27
30,28
30,28
30,28
30,29
30,29
30,29
30,30
32,32
32,33
33,36
34,39
35,42
38,51
40,53
47,72
50,82
51,86
54,98
54,107
54,119
53,118
50,111
49,109
47,98
51,84
56,71
81,53
85,46
97,42
115,38
119,36
125,33
116,32
105,31
96,30
94,31
90,31
92,32
85,32
83,32
79,32
74,31
72,30
72,30
66,29
65,29
65,29
63,29
57,29
34,26
33,26
33,26
31,26
31,26
32,26
31,26
32,27
31,27
31,27
32,28
31,28
32,29
32,32
32,35
33,38
34,40
35,46
37,50
38,53
42,63
44,67
46,83
49,91
51,105
52,114
50,113
51,107
50,101
53,79
58,70
63,60
81,41
91,38
106,34
106,34
102,32
99,31
95,30
80,28
76,29
74,28
75,28
73,28
70,28
67,28
62,27
63,27
62,27
60,28
37,31
38,31
39,32
39,32
38,32
37,33
36,34
34,36
33,40
35,40
36,51
38,56
40,66
42,69
45,77
45,88
48,92
51,107
53,113
56,120
56,127
56,129
54,124
54,117
47,98
46,88
46,79
62,59
73,52
86,38
89,36
97,33
102,33
95,32
83,31
81,30
75,29
69,29
67,29
61,29
57,30
56,29
53,29
54,28
54,28
53,28
54,27
58,27
60,27
55,27
30,27
30,27
31,27
30,28
29,29
28,29
28,29
27,30
27,31
28,32
28,33
29,35
29,38
32,45
34,49
37,65
38,77
39,82
42,91
42,99
43,104
43,97
42,96
43,79
43,74
48,56
52,53
61,43
71,36
74,34
72,33
72,33
68,32
59,30
58,29
54,28
56,28
55,28
54,27
52,27
47,27
44,27
42,27
41,27
40,27
40,28
39,28
40,28
40,27
40,27
34,27
33,27
33,27
33,27
33,27
31,27
30,27
30,27
30,26
29,26
30,26
30,26
30,27
31,28
30,28
30,29
30,29
30,30
30,30
30,31
31,34
32,35
34,40
34,43
35,46
35,54
38,63
40,74
40,78
42,93
43,98
46,108
47,107
47,110
46,96
47,84
52,68
55,55
67,43
68,37
70,35
73,33
73,33
65,30
60,29
57,29
54,28
52,27
48,27
47,27
31,27
31,28
31,29
31,29
30,31
31,33
31,37
31,42
32,46
35,57
38,66
41,83
43,92
44,104
47,115
46,118
47,120
48,115
47,114
48,97
51,88
71,71
86,60
97,55
124,44
136,41
146,39
146,38
122,35
112,34
100,33
78,30
70,29
59,28
54,28
56,28
53,28
54,28
48,27
48,27
47,26
44,26
44,26
40,26
40,26
40,26
39,26
38,26
35,26
35,26
30,35
30,35
30,35
30,35
30,35
29,34
29,35
29,35
29,37
29,39
29,40
32,45
33,48
34,52
37,62
40,69
42,83
43,86
42,92
43,102
42,101
40,102
40,96
39,87
39,73
40,64
43,50
44,40
47,38
49,36
50,35
54,35
52,35
52,34
51,35
51,34
48,34
47,34
43,34
40,33
39,34
36,33
34,33
36,34
36,33
36,33
36,33
37,33
37,33
35,32
32,36
32,37
32,37
32,39
32,40
32,43
33,47
33,52
34,68
35,78
38,99
39,111
40,121
43,124
42,117
46,99
48,86
51,76
65,51
75,46
87,37
97,38
97,37
94,36
86,34
71,33
61,32
59,31
46,31
45,31
42,30
43,30
41,30
40,30
40,30
40,30
40,30
40,30
37,30
35,30
35,30
35,30
34,29
34,29
34,28
34,29
33,28
32,28
32,28
32,28
29,30
29,30
28,30
28,29
28,30
28,30
28,29
28,30
29,32
29,34
30,36
30,40
31,42
32,51
34,55
36,70
37,78
38,87
38,91
37,89
37,84
37,77
41,60
47,50
57,44
72,40
80,37
88,36
90,36
88,36
78,33
75,32
68,30
66,30
66,29
60,29
57,29
54,29
50,29
47,29
42,30
42,30
40,29
38,30
38,30
36,30
35,30
34,31
35,31
35,31
29,28
28,29
28,30
28,30
29,32
28,33
29,37
29,38
30,42
30,46
31,51
33,60
34,62
35,71
40,91
40,96
44,104
44,108
46,114
46,109
44,95
43,94
42,89
43,77
45,69
56,58
60,53
64,47
75,39
80,36
84,36
81,35
77,34
69,33
65,33
53,31
52,32
45,31
41,31
40,31
38,31
38,31
38,31
39,31
39,31
40,31
41,31
43,31
45,30
48,30
31,31
31,31
30,32
32,38
34,43
36,51
38,56
40,58
44,65
46,71
46,80
48,86
50,98
53,111
51,116
51,113
52,112
50,101
49,87
47,78
51,59
59,54
69,43
76,39
78,37
83,34
84,33
78,31
78,31
73,31
66,30
63,30
60,31
57,31
50,31
50,31
49,31
46,30
45,30
43,29
45,30
46,29
45,29
44,29
45,29
45,29
44,28
45,29
46,28
50,28
31,31
31,31
31,31
31,32
33,34
33,36
33,39
34,43
34,47
33,52
32,53
32,59
34,66
36,73
38,85
38,88
39,92
39,95
39,96
38,93
39,87
39,88
39,81
40,78
43,66
48,63
51,54
56,42
60,39
62,36
60,34
62,33
56,33
55,33
52,33
51,33
50,33
50,33
52,33
55,33
54,32
56,32
58,31
58,30
55,30
51,29
48,29
44,29
42,29
43,29
28,31
28,31
28,32
28,33
30,35
31,37
31,37
33,42
34,49
37,60
38,63
38,70
40,79
40,80
42,86
42,88
43,91
43,86
43,82
42,74
42,67
42,61
44,44
48,40
61,37
64,35
76,33
76,33
81,33
80,32
85,32
83,32
79,32
79,32
79,32
80,32
74,32
72,31
70,31
67,31
65,30
60,30
63,30
61,30
58,30
56,30
55,29
56,29
57,29
52,28
29,28
29,29
29,29
30,30
30,31
30,34
31,40
32,41
35,49
36,54
36,60
37,74
38,81
40,91
40,95
40,99
41,98
43,92
41,83
40,77
38,69
37,55
37,47
40,41
43,37
44,34
50,31
52,32
53,31
51,31
50,31
46,30
46,30
42,29
40,28
40,28
40,27
40,27
40,27
40,27
39,27
40,27
43,28
43,28
43,28
48,28
47,28
47,28
48,28
47,28
32,61
35,72
36,74
38,88
39,94
40,98
40,94
40,88
39,92
37,87
37,83
36,69
37,64
39,57
40,52
44,43
54,32
58,32
61,31
62,30
64,30
65,30
67,30
61,29
64,30
63,29
63,30
59,30
55,30
55,30
54,30
52,29
51,29
52,29
53,29
52,29
51,29
53,28
52,28
53,28
52,28
55,28
55,28
57,28
57,28
58,29
58,29
56,29
55,29
58,29
28,31
28,32
28,33
29,40
30,43
32,50
34,58
35,63
37,73
36,74
37,77
37,78
38,80
39,76
39,77
40,81
40,83
40,84
40,78
40,72
42,64
43,56
46,50
53,40
57,35
64,32
65,31
66,31
65,30
64,30
62,29
59,29
59,29
54,29
57,29
54,29
53,29
50,29
48,29
48,29
49,29
48,29
48,29
49,29
51,29
52,29
53,29
52,28
51,28
49,27
35,28
35,29
35,29
35,30
34,32
33,37
33,43
34,46
36,51
38,61
39,64
40,71
41,77
42,79
44,87
44,90
46,92
47,88
47,91
47,85
48,80
55,66
61,59
65,56
77,45
83,41
89,36
86,35
86,35
84,34
82,34
73,33
70,32
66,32
61,32
59,32
53,31
50,31
49,30
47,30
47,29
43,29
43,29
40,28
38,29
39,28
40,28
40,28
39,28
36,28
27,29
27,30
27,30
27,29
28,29
29,30
29,31
30,33
31,35
31,40
33,50
34,56
37,71
39,78
40,93
43,105
44,103
45,100
45,100
44,94
42,73
42,64
42,52
44,46
45,42
51,34
55,33
60,31
64,31
67,31
68,31
70,32
67,32
68,32
66,32
62,32
60,32
57,32
59,31
57,31
55,30
54,30
54,30
53,29
53,29
53,28
53,29
51,29
52,28
51,28
30,31
31,33
32,42
32,49
34,56
36,68
39,78
41,88
43,90
44,89
44,91
43,89
42,82
40,79
40,78
39,69
40,64
42,52
42,48
44,44
50,38
53,37
56,35
58,35
57,34
57,34
55,33
54,31
52,31
48,31
50,31
50,30
50,30
48,29
47,30
47,29
46,29
44,29
42,29
42,29
45,29
49,28
49,28
50,29
48,28
48,29
44,29
43,29
40,28
40,28
29,29
29,32
30,33
31,36
33,42
34,46
37,59
39,64
40,71
43,82
43,84
45,98
45,104
44,104
44,102
43,99
43,93
43,87
41,80
41,65
40,57
40,48
40,45
45,42
51,35
54,33
58,31
58,31
57,30
54,30
56,30
53,30
54,30
50,30
55,30
56,31
55,30
53,30
51,30
51,29
49,29
46,29
44,29
45,29
43,28
42,28
44,27
41,27
42,27
42,26
30,27
30,28
30,28
30,29
30,29
30,29
29,30
29,30
29,32
29,33
31,40
31,41
33,48
36,61
38,67
40,80
40,82
40,85
41,94
42,96
41,87
40,86
39,80
39,73
39,64
39,49
40,47
40,44
43,38
45,33
48,32
48,32
47,32
46,30
45,30
46,29
45,29
44,29
43,29
43,29
42,29
41,30
40,30
40,30
39,30
41,30
42,31
41,31
41,31
41,31
28,27
29,30
29,31
30,32
30,33
30,34
32,36
32,37
36,41
36,44
38,49
40,55
42,60
44,68
44,67
45,67
45,67
44,69
42,64
43,60
41,58
42,54
41,51
44,42
46,39
46,36
47,32
47,32
48,32
45,32
49,32
55,31
56,32
55,33
55,32
57,32
55,31
55,31
50,30
51,30
51,28
49,28
48,28
48,28
48,28
48,28
47,28
46,28
46,28
44,28
30,32
30,33
32,37
33,40
35,41
36,47
39,52
40,60
40,63
41,63
41,65
42,64
40,61
40,60
40,55
37,54
37,48
36,43
36,41
39,37
41,35
49,31
51,31
53,31
55,30
55,31
52,31
52,32
50,32
46,34
47,34
49,33
51,32
50,32
47,30
50,30
51,29
50,30
48,30
48,30
46,30
42,29
41,29
37,29
34,28
32,28
29,28
28,29
28,29
28,28
32,35
33,37
34,39
36,42
37,46
37,51
38,57
39,62
40,72
40,76
40,74
40,71
40,69
39,58
40,51
40,40
42,36
44,35
52,34
53,33
55,32
56,31
57,31
55,32
52,32
49,33
48,33
49,34
50,34
48,33
49,32
50,31
52,30
53,29
55,28
54,29
50,29
50,29
50,29
50,29
47,30
46,29
44,29
44,29
43,29
41,29
40,29
39,29
38,29
36,29
28,26
28,26
28,26
28,26
28,26
28,26
28,26
28,27
29,27
29,26
29,27
30,26
30,28
30,28
30,29
30,30
30,30
31,32
30,32
30,33
31,34
31,36
32,40
33,42
37,47
38,50
39,52
41,54
40,56
40,55
40,53
40,53
41,48
44,46
53,40
55,39
56,36
60,34
62,33
61,33
60,32
57,32
57,32
57,32
54,30
54,30
52,30
53,30
53,30
53,29
36,26
34,26
34,27
34,28
34,29
33,29
32,32
31,32
31,34
32,35
33,35
36,40
37,44
41,49
42,51
44,57
48,71
49,73
48,70
46,69
45,69
43,69
42,65
41,56
41,54
41,52
45,46
47,43
52,38
52,35
55,34
55,33
54,33
52,32
51,32
48,32
46,32
46,32
49,32
50,32
49,32
52,32
54,31
55,31
55,30
55,30
55,30
54,30
49,30
47,29
29,31
31,36
32,40
33,43
37,53
40,59
42,69
43,75
47,81
49,87
47,95
46,105
47,109
46,102
45,104
44,97
41,84
43,76
47,58
48,53
59,50
80,43
86,40
103,34
109,32
109,33
102,33
105,33
88,35
83,35
75,35
81,34
79,34
83,33
86,32
81,30
80,30
78,30
66,29
58,29
53,29
52,29
54,29
55,29
58,29
58,29
58,29
57,29
55,28
52,28
28,38
29,39
29,39
29,40
30,40
30,41
30,41
30,42
32,43
32,44
34,55
35,58
36,65
39,73
39,84
40,103
41,104
43,108
47,120
47,134
48,135
49,129
48,123
44,111
42,97
45,67
46,58
46,48
54,40
55,36
69,33
75,33
76,34
83,34
82,33
81,33
75,32
74,32
71,32
70,32
70,31
71,31
69,31
71,31
72,31
69,30
67,30
68,30
69,30
68,30
28,26
28,26
27,27
27,26
27,27
27,27
27,27
27,27
27,29
27,30
27,31
27,32
28,33
29,36
30,37
31,39
33,45
34,48
36,57
36,58
37,60
37,64
38,66
40,67
40,67
42,67
42,66
42,66
41,59
42,55
44,50
43,43
50,41
61,39
68,36
73,36
80,35
81,36
79,33
75,32
76,31
70,31
67,31
64,29
63,30
63,29
60,30
59,29
56,28
58,29
27,34
27,36
28,36
29,36
31,37
35,44
37,48
39,52
42,61
44,62
46,76
47,78
47,90
47,101
46,114
45,121
44,125
42,119
41,112
41,90
41,82
44,67
55,48
59,44
71,36
77,34
85,34
85,33
81,33
75,32
67,31
60,30
57,30
54,30
54,29
52,28
51,27
50,28
50,28
49,30
51,30
51,30
52,30
51,30
51,30
50,30
46,29
47,28
45,27
45,28
26,27
26,27
26,28
27,29
27,32
29,33
30,37
33,43
34,47
37,58
38,65
40,75
41,85
43,96
43,105
44,107
45,108
45,98
43,94
40,78
41,72
40,65
38,54
39,50
47,43
53,40
63,40
74,35
76,33
78,31
79,30
72,30
65,30
59,30
58,30
57,30
54,30
57,30
53,29
54,29
53,29
52,29
52,29
53,29
50,28
47,28
48,28
48,28
47,27
45,27
29,27
29,27
30,27
31,28
30,29
31,31
31,32
32,32
31,35
31,35
31,37
31,38
31,39
31,41
31,42
33,50
35,54
37,60
40,68
41,72
44,76
44,77
45,83
44,82
44,80
44,75
44,76
45,71
48,57
51,52
52,45
53,43
62,36
60,36
64,34
62,34
64,35
64,34
64,34
60,33
55,33
55,33
55,31
57,30
57,29
55,28
53,28
51,27
48,27
43,28
34,28
34,28
34,28
32,28
31,28
31,30
30,31
30,32
30,34
30,35
31,39
32,41
32,44
33,52
33,58
36,68
37,72
38,76
39,85
40,90
43,95
44,98
44,93
44,88
46,84
46,65
47,55
46,50
47,41
46,38
47,33
47,31
46,31
44,30
43,30
42,29
43,29
42,29
45,30
48,31
50,32
49,32
50,32
50,32
47,32
45,31
44,30
45,30
45,29
48,30
41,61
40,66
41,69
41,70
42,74
42,75
40,74
41,72
42,71
40,64
40,57
39,48
40,44
39,39
42,34
42,34
44,32
46,31
47,31
47,31
47,31
50,30
51,31
53,30
52,30
53,31
53,31
53,31
50,32
50,32
51,32
53,32
54,31
57,31
60,31
60,30
64,29
63,29
61,29
60,29
57,29
56,29
53,29
51,29
49,29
50,29
52,28
54,28
54,28
53,29
30,28
30,28
30,29
30,29
30,29
30,29
30,29
30,29
30,29
29,29
30,28
30,29
30,29
30,29
30,28
30,28
29,28
29,28
29,28
29,29
29,29
28,30
29,31
29,32
30,33
31,34
31,35
32,35
33,40
33,41
35,49
36,55
38,77
40,87
42,102
43,116
43,119
44,124
45,118
47,103
49,86
52,75
60,59
64,51
72,40
73,34
74,33
73,33
69,32
63,31
28,28
29,28
29,28
29,29
29,29
29,30
29,33
29,35
30,37
32,43
33,49
35,58
37,62
38,68
41,79
42,83
44,90
44,90
45,89
45,88
44,86
45,75
45,68
54,59
58,53
66,47
80,39
88,36
94,32
96,32
92,31
84,31
76,31
76,32
75,32
69,32
70,32
69,32
69,31
63,30
57,29
55,29
56,29
54,29
54,29
54,28
56,29
56,29
59,29
60,29
29,27
29,28
30,28
30,29
30,29
30,30
31,32
31,34
31,40
32,44
36,53
38,58
39,65
40,72
40,71
44,74
45,73
45,73
44,70
44,68
44,68
43,70
41,64
41,56
50,47
57,44
67,40
78,34
92,32
95,32
95,31
93,31
93,31
90,32
93,33
91,34
95,35
92,34
89,34
83,33
83,33
69,32
63,31
64,31
64,31
67,31
70,31
73,31
74,31
78,31
31,36
31,39
32,40
32,43
35,49
36,53
40,66
42,72
43,76
47,84
49,91
52,114
53,121
51,121
49,118
50,112
52,96
57,80
60,66
75,46
83,43
94,37
102,36
103,35
108,34
112,35
102,35
107,35
104,34
99,35
91,34
87,33
85,33
77,33
77,32
76,33
70,32
70,31
69,31
73,31
75,31
83,31
93,32
96,32
95,33
95,32
97,32
103,32
111,31
114,31
27,32
28,34
32,41
34,43
37,48
40,60
43,70
47,86
47,90
49,91
50,100
50,104
48,99
48,98
47,93
47,92
48,86
53,71
56,66
61,58
78,47
82,40
89,37
97,37
98,36
98,35
92,35
93,34
93,34
97,33
93,32
88,32
87,32
86,31
82,31
73,31
73,31
68,31
64,31
66,31
64,31
63,31
62,31
64,31
65,31
69,31
72,31
75,30
76,30
82,31
27,27
28,28
28,28
29,29
29,30
30,32
31,33
31,36
32,38
32,39
34,51
36,54
37,68
38,72
42,80
43,89
44,91
44,92
43,89
46,93
46,96
44,90
46,85
50,80
60,68
61,57
70,40
83,35
96,33
99,32
96,33
94,33
93,33
88,33
91,34
87,33
84,33
85,32
85,32
79,31
73,31
66,29
68,29
69,29
69,29
70,30
69,30
66,30
68,29
71,29
26,28
26,28
27,30
28,31
28,32
28,34
29,37
30,41
30,43
31,48
33,52
37,63
39,67
41,74
41,82
42,85
43,92
42,91
45,92
47,80
52,76
59,63
60,54
61,49
59,38
60,35
54,33
52,33
49,30
49,29
49,29
46,29
44,29
42,29
40,29
38,29
35,29
35,28
33,28
33,28
33,28
33,28
33,28
33,28
33,28
32,28
31,27
30,28
30,28
30,28
28,27
28,28
29,28
29,28
30,29
30,28
30,29
30,28
30,28
30,29
30,29
30,30
30,33
30,36
32,41
32,43
33,47
34,50
34,54
36,65
37,70
39,72
40,79
40,84
42,86
43,81
44,74
47,61
52,56
66,42
76,37
82,35
93,32
91,32
85,32
78,31
71,31
52,30
42,30
39,29
39,28
37,29
37,28
36,28
38,29
37,29
38,29
39,28
39,29
40,29
28,28
28,29
28,29
28,29
28,29
29,30
29,31
29,31
29,31
29,32
29,33
30,33
30,35
30,36
31,40
32,42
34,45
37,52
40,59
41,68
42,76
43,84
43,94
43,102
45,105
48,108
48,104
49,97
49,92
46,78
45,67
43,63
40,50
40,43
38,34
38,31
38,30
37,30
38,30
38,29
38,29
37,29
37,29
36,29
36,29
34,29
34,29
33,29
33,29
32,29
34,47
35,49
36,54
38,65
40,69
40,80
40,88
40,94
39,104
39,111
40,112
40,103
44,97
51,76
54,69
71,46
75,40
80,35
86,35
88,35
83,33
78,33
72,33
66,32
58,31
53,31
51,31
52,31
47,31
45,30
42,30
40,30
41,29
41,30
42,29
41,29
40,29
39,29
38,29
37,29
35,29
35,29
35,29
36,29
36,29
35,29
35,29
32,30
31,30
30,30
29,29
28,29
29,30
29,30
30,31
30,32
31,34
33,36
32,37
32,40
32,40
32,43
34,53
35,58
39,70
40,76
41,78
44,88
44,89
47,84
52,80
54,74
75,66
78,59
91,46
95,42
95,40
90,36
84,35
67,33
56,32
51,32
51,32
48,31
49,31
49,30
51,30
52,29
47,28
46,29
44,29
42,29
40,29
37,29
36,29
36,29
36,29
35,29
35,28
35,28
29,27
29,27
29,27
28,27
28,27
28,26
27,27
28,27
27,28
28,28
28,29
29,30
30,31
31,32
33,36
34,39
36,42
37,50
39,55
41,72
41,80
43,90
45,103
46,109
50,115
50,116
53,101
54,92
60,85
70,65
74,55
82,43
86,40
87,33
84,31
84,32
74,31
68,31
63,30
63,30
56,29
53,28
51,28
47,28
47,28
42,28
40,29
40,29
39,30
40,30
27,28
27,29
28,31
29,33
30,40
31,42
33,51
34,57
37,64
38,72
40,76
43,87
46,91
50,100
53,105
52,110
53,98
53,88
60,73
60,66
61,54
65,37
66,35
67,33
66,32
66,32
69,31
67,31
65,32
64,32
63,31
61,31
61,31
56,31
56,30
55,30
55,30
54,30
60,30
61,31
59,30
57,30
61,30
62,30
61,30
58,30
58,29
58,29
55,29
52,29
27,26
26,27
27,27
26,27
27,28
27,29
28,31
28,33
28,35
29,37
29,38
31,40
32,40
33,40
35,46
37,48
38,56
40,60
40,62
40,67
40,74
40,80
40,79
40,73
41,78
40,78
42,69
42,63
48,53
55,50
57,48
63,38
64,34
64,32
65,31
66,31
65,30
59,30
59,29
59,29
59,29
54,29
54,28
52,28
54,29
54,29
58,29
56,29
63,29
64,29
30,36
32,40
33,41
35,45
37,51
39,55
44,66
46,79
47,87
50,98
51,99
50,99
49,94
47,91
47,69
49,56
56,46
61,43
69,39
87,35
100,33
103,32
100,32
99,32
95,32
89,32
79,33
77,32
79,33
76,33
70,32
72,31
73,31
71,30
66,30
68,31
66,31
61,31
54,29
54,29
54,29
57,30
60,30
63,30
63,30
62,31
63,31
62,31
62,30
63,29
28,31
30,33
31,34
33,39
34,44
34,48
37,59
39,65
42,77
43,83
44,86
46,83
46,80
43,77
42,75
40,70
38,59
38,58
42,50
52,43
59,41
73,37
89,34
106,33
109,34
109,34
98,34
89,34
76,34
74,35
64,35
60,36
58,36
57,35
58,35
58,33
59,31
63,30
69,31
68,30
70,30
73,30
72,31
69,31
72,31
70,30
69,30
69,30
70,29
71,29
31,38
32,39
32,41
36,45
38,48
43,60
45,70
46,79
48,93
50,98
50,112
49,112
50,115
47,103
47,99
45,88
47,81
47,70
51,53
57,46
70,40
75,39
82,35
82,34
80,33
77,33
76,33
70,33
66,34
61,34
62,34
63,34
65,34
64,33
62,32
65,33
68,32
66,32
66,31
68,31
71,32
73,31
73,31
73,31
69,31
69,30
61,29
62,28
61,28
63,28
36,40
37,43
37,45
39,48
40,54
40,59
42,68
43,73
45,76
45,84
45,88
44,87
44,86
41,82
39,72
39,62
38,48
40,43
40,39
45,34
52,33
66,32
70,33
74,34
72,35
71,34
67,34
66,33
62,34
59,34
61,33
59,34
56,33
55,34
50,32
49,32
48,31
48,31
50,31
51,30
53,30
52,30
52,30
54,30
56,29
56,29
57,30
58,30
59,30
62,29
29,30
29,31
29,31
29,32
29,34
31,38
31,39
33,42
34,44
35,49
39,60
40,62
42,69
42,78
43,83
46,93
47,98
46,105
46,106
45,111
45,107
42,106
40,89
41,80
42,71
47,54
50,46
54,37
57,35
60,33
64,33
60,33
58,31
58,31
56,31
56,31
55,31
51,31
52,31
52,30
51,30
50,30
46,30
46,30
44,30
45,30
44,30
44,30
45,31
44,32
27,33
27,33
28,34
29,37
29,37
31,40
32,42
33,42
36,48
37,54
40,64
40,67
40,75
44,91
47,98
48,112
49,119
50,120
54,133
51,134
49,126
48,119
46,116
44,98
43,84
46,64
50,54
52,49
56,38
59,36
68,31
67,31
74,31
74,31
78,31
83,31
79,31
77,31
70,31
69,30
63,30
61,29
57,29
57,28
55,27
51,27
48,26
51,27
48,27
46,27
28,36
28,39
28,40
28,39
28,39
28,39
29,39
29,39
31,38
32,38
33,38
36,40
37,41
40,48
40,51
42,58
45,71
45,74
46,90
46,99
45,98
47,99
49,105
47,100
46,91
48,85
52,70
56,66
64,49
67,43
80,37
83,34
83,33
77,31
76,31
68,31
58,32
58,32
50,31
49,31
45,31
46,30
42,30
40,29
40,28
39,28
39,28
39,28
39,28
39,28
31,38
31,40
35,47
36,51
39,60
40,66
41,67
42,72
44,79
46,95
48,94
48,109
49,115
51,119
50,125
47,125
47,116
45,95
47,88
48,69
48,57
51,50
54,36
57,32
56,31
58,30
54,30
53,29
51,28
49,28
47,28
47,28
49,27
48,28
48,27
47,27
45,27
44,27
45,27
40,27
39,28
39,27
38,27
38,27
38,27
38,27
37,27
37,27
36,28
37,28
33,32
33,32
33,32
33,31
33,32
34,34
35,35
36,38
36,40
36,42
37,47
39,49
41,62
42,67
42,76
46,95
49,101
54,127
53,127
53,135
53,133
51,130
48,119
45,107
43,91
51,69
57,61
66,50
66,43
73,39
74,35
70,34
57,33
54,34
48,33
40,33
42,33
40,33
40,33
40,33
40,33
40,33
40,34
39,33
40,33
40,32
40,32
40,33
40,32
41,33
32,27
33,28
33,29
32,30
32,31
33,33
34,34
35,35
36,36
36,37
36,37
37,43
37,46
37,49
37,55
40,61
43,74
44,87
46,104
47,116
50,128
53,130
55,133
55,132
54,123
52,123
52,94
52,91
52,76
55,71
59,54
69,39
70,36
73,34
71,33
71,33
65,32
67,32
65,31
64,32
63,31
62,31
59,31
56,30
56,31
51,30
50,29
49,29
48,29
47,29
28,32
28,32
29,33
31,34
31,35
32,37
34,41
35,44
38,55
39,62
40,70
43,81
45,85
49,101
49,103
49,114
51,120
50,125
50,131
48,134
48,134
46,123
45,117
43,98
45,88
45,79
51,55
54,46
61,38
62,36
64,33
59,32
60,31
59,31
57,30
54,30
54,30
58,29
54,28
53,28
53,29
56,29
57,29
54,29
55,29
56,30
53,30
51,29
49,29
48,29
32,28
32,29
31,29
30,29
31,30
32,31
34,33
35,37
38,43
38,48
40,56
42,63
43,67
45,76
46,84
49,96
50,104
49,110
46,115
46,114
47,112
47,108
45,110
43,97
42,87
45,74
46,67
47,61
54,43
59,38
67,35
67,35
69,34
71,34
68,34
65,34
63,34
60,34
59,32
56,31
51,31
46,31
47,31
44,30
42,30
41,30
41,30
42,29
40,29
40,28
29,35
29,36
29,37
29,37
29,39
30,41
32,44
35,52
37,56
43,70
44,72
47,75
48,80
50,87
49,104
49,112
48,116
49,140
50,148
50,152
50,148
48,134
47,126
47,108
49,80
50,73
55,50
58,44
61,36
65,32
67,32
68,32
66,31
64,31
58,30
56,30
52,30
53,30
50,30
52,30
51,29
51,29
52,29
51,29
47,29
46,29
46,29
47,29
47,29
48,29
29,28
28,28
28,28
28,28
28,28
28,28
28,28
28,29
29,30
29,34
30,37
31,43
32,47
33,50
35,56
37,63
39,74
40,79
40,82
41,95
41,102
43,107
45,114
47,114
49,113
48,103
49,88
48,80
47,73
51,53
53,45
64,36
67,34
69,33
72,31
69,30
64,29
59,29
51,29
52,29
51,30
51,30
48,30
47,30
47,30
45,30
46,30
44,30
45,30
45,30
29,29
28,30
29,30
29,30
29,31
30,32
32,32
33,33
35,35
36,40
39,48
40,54
43,58
47,69
50,77
54,94
53,105
52,114
53,128
51,131
48,124
45,117
46,113
53,92
56,83
67,61
68,55
78,52
91,40
93,34
91,30
89,30
85,30
76,29
72,30
62,31
62,31
61,31
60,31
61,31
61,30
61,30
59,28
58,28
56,28
54,28
54,28
50,28
49,28
50,28
29,27
30,27
30,27
31,27
32,27
32,27
32,27
31,27
31,27
31,27
30,27
29,27
30,27
30,27
30,29
30,30
31,34
33,38
35,40
38,44
40,48
42,57
46,60
46,65
51,80
52,90
55,105
57,117
57,120
58,121
56,120
51,102
48,95
47,70
46,62
45,50
47,42
49,36
49,33
49,31
49,30
47,30
48,30
49,31
52,31
57,31
60,31
62,31
63,31
65,30
28,27
28,27
28,27
28,27
28,28
29,28
29,29
30,32
30,33
30,36
32,40
35,43
36,50
38,52
39,55
42,60
44,69
44,84
44,90
45,99
44,107
44,107
41,99
41,97
46,72
48,61
63,46
66,41
78,37
86,34
91,33
90,31
91,31
82,32
75,32
73,31
69,30
73,31
70,31
68,31
68,31
68,30
65,30
63,30
65,30
62,30
59,29
56,29
57,29
56,29
30,26
29,26
30,26
30,26
30,26
30,26
29,26
29,26
29,26
28,26
28,26
28,26
29,26
29,27
29,27
29,28
30,31
30,33
31,39
33,44
36,47
41,61
42,68
45,92
47,97
48,114
47,121
48,121
46,114
47,107
50,90
55,64
58,56
71,42
80,38
83,36
91,33
90,32
87,32
81,31
78,32
67,31
62,31
54,31
52,30
53,29
48,28
48,28
47,27
47,27
26,26
26,27
26,28
26,28
26,30
26,31
27,32
27,34
28,37
29,40
29,42
31,45
33,54
35,56
39,69
40,76
42,84
43,99
44,102
45,109
46,109
44,104
42,95
45,91
44,77
47,67
48,61
52,50
54,44
60,36
63,33
66,31
67,31
69,30
69,30
65,31
64,32
63,32
58,32
57,32
56,32
57,31
56,29
56,29
55,28
54,28
54,28
52,28
51,28
50,28
31,27
30,27
30,27
30,28
30,28
30,29
30,30
31,32
33,34
33,36
35,40
35,41
38,47
40,50
41,58
47,70
50,74
54,91
56,95
56,102
57,112
56,114
53,120
51,118
50,113
47,107
45,104
44,84
46,70
43,63
43,50
44,43
49,32
52,30
58,30
62,29
66,29
68,28
69,29
63,29
61,30
59,30
57,30
59,31
56,31
56,31
54,30
51,30
49,30
50,29
29,31
30,32
32,36
33,38
34,42
34,46
37,53
39,57
41,68
43,76
46,87
51,108
52,118
53,133
52,141
52,146
50,142
49,134
45,110
43,96
44,89
46,63
49,53
55,42
57,40
59,37
63,34
67,33
67,31
65,31
63,30
61,30
62,31
59,30
58,30
58,30
57,31
58,30
59,30
60,30
61,29
60,29
61,29
61,28
60,28
60,29
56,29
56,29
54,29
54,29
29,27
29,27
30,27
30,28
30,28
30,29
30,30
30,31
31,35
31,36
33,40
35,42
36,44
40,50
40,51
42,58
44,65
46,71
51,83
54,93
56,112
57,123
60,130
59,130
57,132
52,126
50,117
49,108
47,80
47,73
49,53
52,45
53,40
55,32
52,32
52,31
50,31
49,30
44,29
42,28
43,28
43,27
42,27
41,27
41,27
40,27
39,27
38,27
37,27
37,27
27,26
27,26
27,26
27,26
27,26
28,26
28,26
28,27
28,27
27,27
27,27
27,27
27,27
27,28
27,29
28,30
28,32
28,33
29,36
30,40
30,42
32,50
33,52
38,58
38,61
40,67
44,72
45,72
51,83
52,99
52,106
57,134
62,142
61,159
58,158
55,153
52,126
49,106
44,75
44,60
42,49
46,37
46,35
47,31
46,30
46,29
44,28
42,28
42,28
43,28
30,27
31,27
31,27
30,27
30,28
29,28
30,28
29,28
29,29
31,32
31,34
32,35
32,40
33,40
35,48
37,52
38,57
39,74
41,80
45,96
45,99
47,106
48,121
49,135
48,131
49,123
47,117
44,101
44,84
45,56
48,46
48,40
50,35
50,35
55,33
54,31
51,30
47,28
45,28
44,27
42,27
39,27
39,27
37,26
36,26
35,26
34,26
34,26
32,26
31,26
27,27
27,27
27,28
28,28
28,29
28,29
28,30
28,30
28,31
28,32
28,35
29,39
30,40
34,48
35,52
38,57
40,78
42,92
46,107
46,112
45,115
45,124
44,118
41,100
40,91
39,85
39,70
38,63
38,48
40,40
40,39
43,33
44,33
46,31
47,31
49,30
48,29
47,28
45,28
43,27
41,27
39,27
40,27
38,27
37,27
35,27
36,27
34,27
32,27
31,27
27,27
28,27
28,27
28,28
28,28
28,29
29,30
29,31
29,31
29,34
30,39
30,43
32,51
35,58
37,66
40,79
40,89
45,100
47,103
47,107
45,107
44,109
41,95
39,90
38,77
37,60
38,52
43,39
46,35
50,32
55,30
56,30
63,30
63,30
66,30
70,30
74,30
75,30
75,29
73,29
70,29
65,28
62,28
61,28
58,29
59,29
57,29
57,29
58,29
56,29
28,26
28,26
28,26
28,26
27,26
28,26
28,26
27,26
28,26
28,26
29,26
29,26
29,26
30,27
30,27
31,28
31,29
31,33
31,36
33,44
35,51
37,64
40,69
42,75
45,92
47,101
51,108
51,107
49,106
46,99
44,87
45,67
45,56
52,40
58,36
65,33
83,31
92,31
96,31
93,31
88,31
90,31
85,31
76,32
75,32
71,32
68,32
65,32
57,31
55,31
29,26
29,26
29,26
29,27
28,28
29,28
28,28
29,29
30,29
31,30
31,30
31,30
31,31
34,36
34,39
36,42
39,51
41,53
45,67
47,73
49,85
50,92
50,93
48,88
46,85
44,71
45,58
46,53
64,39
72,37
98,34
103,34
112,32
115,31
110,31
92,31
74,31
66,31
59,31
55,30
55,30
56,30
56,30
53,30
50,29
48,29
48,29
47,30
45,30
44,29
28,28
29,28
29,29
29,30
29,30
29,31
29,31
29,31
29,34
29,36
29,39
30,40
32,44
34,46
38,50
39,55
40,60
41,68
44,74
45,89
44,93
43,99
45,105
45,104
42,100
41,92
40,81
40,65
40,55
43,40
45,36
49,32
53,31
54,31
60,30
57,29
55,28
54,28
53,28
51,27
49,28
45,27
44,27
47,27
49,27
48,27
50,26
51,27
49,26
45,26
28,27
28,28
28,27
28,28
29,29
29,29
31,30
31,31
32,33
33,34
33,36
34,40
34,43
34,52
36,57
38,58
41,71
42,78
42,90
43,91
44,88
43,89
42,87
41,70
45,64
53,53
64,45
68,40
75,33
76,32
75,31
69,31
66,31
58,30
57,30
53,29
50,28
50,29
51,29
52,29
52,29
51,29
51,28
51,29
52,29
49,30
48,29
47,29
47,29
46,30
29,27
29,27
29,27
29,28
30,28
29,28
30,29
30,29
29,29
29,29
29,29
29,30
29,30
29,31
29,33
30,34
31,39
32,40
35,41
37,43
38,45
39,49
41,58
44,64
43,65
45,78
47,80
49,81
50,79
49,78
48,75
44,66
44,58
44,53
47,50
52,40
59,37
72,33
85,32
87,31
86,31
87,31
75,31
72,31
61,30
63,30
59,30
55,30
54,30
52,29
29,30
30,30
31,31
31,30
31,33
31,35
31,37
32,40
33,41
36,55
39,63
40,70
44,83
45,89
49,105
49,109
49,109
49,103
47,100
45,91
44,84
43,75
43,58
44,49
48,41
49,39
50,34
55,31
59,30
59,31
59,31
61,31
66,31
64,32
59,32
59,31
62,32
60,32
56,32
51,30
50,29
51,30
49,29
48,30
50,30
54,30
54,29
54,29
53,28
52,28
29,26
29,26
29,26
29,26
29,27
29,27
29,27
29,27
30,28
30,28
30,28
30,28
30,28
30,29
30,30
31,32
31,37
32,39
34,47
34,53
36,60
37,73
38,78
40,90
40,92
41,97
42,99
43,99
42,94
41,83
42,84
40,72
42,65
47,51
53,47
61,40
66,35
73,33
79,32
78,32
69,31
66,30
63,31
53,30
51,30
48,30
51,30
50,30
54,30
55,30
28,26
28,26
28,26
29,26
30,26
30,26
30,26
29,26
29,26
28,26
28,26
28,26
28,27
28,27
28,27
28,27
28,27
29,27
29,27
30,28
30,30
32,30
34,35
34,38
36,45
37,50
39,54
40,65
41,70
43,83
44,90
45,92
45,92
45,99
45,97
44,93
43,84
41,68
43,63
49,47
52,44
55,34
57,30
61,30
59,29
56,29
51,29
51,28
53,28
57,28
31,27
31,28
31,28
31,30
32,33
32,37
33,39
34,43
35,45
35,51
37,56
37,64
39,78
40,87
41,100
43,103
47,106
47,102
49,102
46,94
46,89
45,85
45,80
44,73
44,57
46,52
53,38
58,31
58,29
62,29
63,29
64,29
61,30
62,30
60,31
60,30
60,30
61,30
63,30
63,30
61,30
59,28
58,28
57,28
53,29
49,28
47,27
47,27
49,27
50,27
28,26
29,26
29,26
29,26
28,26
29,26
28,26
28,26
28,27
28,27
28,29
28,29
28,31
28,31
30,33
32,40
34,41
37,48
37,57
40,65
42,84
44,91
45,98
46,98
45,99
45,90
44,83
40,67
40,60
40,56
44,47
47,43
55,36
69,35
91,33
99,33
100,33
97,32
96,32
81,32
73,31
64,32
53,32
56,32
56,31
55,31
56,30
53,29
54,29
52,29
32,33
33,36
33,39
33,42
37,56
39,64
42,75
43,79
44,88
47,101
48,103
46,105
44,105
42,103
41,90
43,85
47,61
51,55
54,44
66,36
75,36
92,33
91,33
89,33
87,32
87,32
85,33
85,33
81,32
82,32
81,32
85,31
81,31
78,31
67,31
64,31
67,31
64,30
60,30
57,29
56,29
56,28
56,28
55,28
56,28
53,27
51,27
52,27
53,27
53,27
32,31
32,30
32,30
32,30
31,32
32,33
33,40
34,43
36,53
39,67
41,75
44,84
46,88
47,95
48,99
47,101
45,95
43,96
43,92
42,81
43,71
50,54
57,48
65,45
81,39
83,36
89,34
87,34
88,33
75,32
72,32
69,32
66,31
68,32
68,33
67,32
63,31
63,30
61,30
59,29
57,29
52,29
52,29
54,28
53,28
51,27
49,27
51,27
54,27
54,27
30,27
30,28
30,28
30,29
29,30
29,31
30,33
31,36
31,36
33,40
35,41
36,45
37,54
38,57
39,68
38,74
39,82
40,98
40,102
40,103
40,105
40,101
40,92
40,84
40,66
39,59
41,54
48,44
49,40
68,33
77,31
81,31
82,31
78,31
79,29
71,29
67,28
58,27
60,28
62,29
61,29
60,29
57,29
58,29
56,29
55,29
55,29
53,29
51,29
53,28
30,32
31,33
31,33
32,36
33,37
34,38
36,40
36,43
38,54
39,59
40,62
43,71
44,83
48,103
49,106
49,107
46,110
47,112
44,100
43,92
40,81
39,68
40,63
40,53
43,48
46,46
60,41
67,40
89,36
95,34
96,33
99,32
101,33
89,32
81,32
76,31
79,32
80,32
72,31
73,32
66,30
64,30
54,30
52,30
52,30
54,30
53,30
57,30
57,30
59,29
30,28
30,29
30,29
30,30
30,31
30,31
29,31
29,31
29,31
29,32
30,33
30,37
30,40
33,48
35,51
38,59
40,66
41,75
44,81
45,81
47,92
50,97
51,101
50,95
49,92
46,83
47,74
50,55
55,48
59,40
66,32
69,31
71,30
68,31
66,30
58,30
56,29
54,29
54,29
54,28
55,27
55,27
55,27
54,27
57,27
58,27
56,27
57,27
57,27
57,27
26,27
26,28
26,28
27,29
27,29
28,30
28,30
28,31
29,32
29,32
29,34
30,35
30,37
31,37
32,40
34,44
36,52
42,69
43,78
46,97
48,107
50,117
51,121
50,117
47,113
45,107
44,101
41,82
41,77
42,58
42,50
43,45
48,37
60,34
77,30
77,31
78,31
83,31
86,31
80,31
80,31
76,32
81,32
80,32
75,31
71,31
70,30
65,29
60,28
62,27
28,26
28,26
28,26
28,26
28,26
28,26
27,26
27,26
27,25
27,26
27,26
29,26
30,26
30,26
31,26
31,27
30,27
30,27
29,29
29,29
29,29
29,31
29,32
30,33
30,36
31,37
33,41
35,46
40,57
41,61
43,66
48,75
48,78
49,85
48,83
46,85
45,84
41,76
41,70
41,64
47,52
51,46
60,35
63,33
65,31
68,30
66,29
66,29
66,29
64,29
36,68
36,75
38,87
40,92
41,102
44,107
45,117
47,116
48,119
48,118
48,116
49,113
45,100
44,96
43,79
42,71
43,57
45,51
47,45
57,34
59,32
70,31
74,31
77,32
84,32
84,32
81,32
80,32
88,32
91,32
93,32
101,31
103,31
111,31
106,30
102,30
100,30
102,30
98,30
89,29
91,29
97,29
94,29
96,29
98,29
94,29
94,29
94,29
84,30
82,30
42,83
47,88
48,91
49,96
48,98
48,97
48,95
43,88
42,83
39,67
39,61
42,50
56,40
64,39
90,32
97,31
100,32
101,32
109,31
103,31
96,31
84,31
79,31
78,30
72,30
70,29
65,29
62,28
60,28
56,27
54,28
50,28
45,28
43,27
42,28
42,27
40,27
40,27
41,27
40,27
39,26
39,26
40,26
39,26
37,26
38,26
37,26
39,27
38,27
38,27
40,58
43,64
49,76
50,83
52,98
52,100
55,108
55,109
53,110
48,101
46,95
42,92
42,81
42,74
50,58
55,52
59,46
74,36
79,35
85,32
83,32
84,33
83,32
79,31
73,31
73,32
73,33
74,32
73,32
69,31
67,30
67,30
64,29
61,29
60,29
58,30
58,30
53,29
54,29
54,29
53,29
54,29
54,29
54,29
52,29
51,29
49,28
46,29
47,29
47,29
40,43
41,48
45,60
47,66
50,75
53,91
57,97
55,108
54,113
54,117
53,117
53,120
52,111
52,102
53,94
59,74
63,65
75,48
84,44
90,38
96,37
94,36
91,35
84,35
76,34
75,34
78,34
79,35
81,35
82,34
81,34
83,33
79,32
72,32
63,31
62,30
56,29
53,28
51,28
53,28
54,28
52,28
54,29
54,29
50,29
50,29
43,29
44,29
43,29
43,29
35,38
35,42
36,47
38,52
39,56
39,59
41,68
45,73
52,83
55,89
57,94
58,105
59,108
53,106
51,100
48,92
43,77
44,67
54,51
62,45
74,41
83,41
97,42
101,41
106,40
102,40
103,38
92,35
86,34
81,32
69,32
63,31
52,30
51,30
52,29
54,29
55,29
59,29
59,29
60,29
55,29
55,29
51,28
47,27
46,27
44,27
44,27
43,27
44,27
40,27
36,40
38,43
40,46
44,52
48,58
50,61
55,72
56,75
58,79
58,83
57,81
53,73
53,65
59,58
65,55
81,46
93,44
100,44
103,42
102,41
100,37
90,35
83,33
69,31
65,31
60,30
56,30
51,30
49,29
46,29
42,29
42,29
42,29
43,29
43,30
43,30
44,29
44,29
43,29
43,29
44,29
44,29
44,29
46,29
46,29
47,29
47,28
44,27
43,27
42,27
37,33
36,33
35,34
33,40
34,41
37,47
38,50
40,52
44,68
46,76
49,85
50,83
51,85
54,92
52,90
49,76
47,71
44,66
43,65
40,58
40,49
40,44
46,41
50,37
53,36
65,31
69,31
77,29
77,29
76,29
74,30
71,30
60,29
57,29
52,29
52,29
50,28
49,28
49,28
47,29
45,28
45,29
43,28
44,28
42,28
41,28
40,28
40,28
39,28
38,28
35,31
34,31
32,32
33,32
33,33
32,34
32,37
34,41
34,45
35,52
36,54
37,58
43,65
45,71
49,77
50,79
53,81
53,82
51,79
47,73
45,69
43,58
42,52
43,50
50,42
54,40
67,37
73,37
75,36
75,34
75,33
71,31
69,31
68,30
64,31
64,31
61,30
60,30
58,29
49,29
46,28
47,27
46,27
45,27
44,28
43,28
42,28
41,28
41,29
41,29
35,29
35,29
35,28
35,28
36,28
37,27
36,28
36,29
36,29
36,29
35,30
35,31
34,35
34,38
36,42
38,54
39,57
41,60
43,63
45,67
48,74
49,77
53,87
56,93
55,108
54,107
52,105
50,94
48,86
44,65
47,50
47,46
52,37
56,35
65,33
71,33
73,32
74,32
74,32
70,30
65,29
58,29
57,29
54,29
50,29
49,29
48,29
47,28
47,29
47,29
38,30
37,30
38,30
36,30
36,30
36,30
34,33
34,34
33,37
33,39
34,41
35,46
37,50
40,55
40,57
41,62
44,65
47,66
48,69
49,70
47,68
46,64
45,62
49,53
53,48
59,42
62,39
71,35
80,35
86,35
91,33
89,32
85,32
83,32
82,32
71,32
63,32
58,31
57,30
57,30
51,29
48,29
44,29
42,28
42,29
40,29
41,29
39,29
39,29
40,29
34,34
34,35
34,38
35,39
34,41
33,45
34,52
36,53
38,59
40,65
41,70
46,78
50,83
53,84
54,92
54,93
52,90
51,87
50,80
44,69
43,60
48,50
49,44
58,40
60,39
66,36
70,34
71,34
68,33
65,34
62,33
53,34
51,33
48,33
47,34
44,34
40,33
40,32
40,33
41,31
40,33
40,32
41,33
41,33
40,33
40,33
39,32
39,33
38,31
37,32
32,31
33,32
34,33
36,35
37,37
36,36
36,40
36,40
37,48
36,51
37,53
41,60
42,65
45,78
45,80
47,96
48,101
47,99
45,99
44,94
43,81
44,72
51,50
52,47
59,44
67,40
75,37
81,36
79,35
73,36
66,34
64,34
54,33
51,32
48,32
49,32
46,32
44,31
42,31
41,31
40,31
37,32
39,32
39,33
40,32
41,32
42,31
42,31
41,32
42,33
33,47
34,47
35,58
37,64
39,68
43,78
45,85
46,104
46,114
48,118
49,115
47,112
45,110
44,105
43,82
41,72
42,68
43,60
46,53
55,46
67,43
70,43
80,43
80,42
78,41
77,40
73,40
58,39
50,38
49,37
47,36
46,37
45,37
45,36
46,37
45,37
45,37
44,36
46,35
44,34
42,34
41,34
40,34
39,34
39,34
38,34
38,33
38,33
38,33
37,32
35,41
35,46
34,47
34,48
33,52
34,56
36,60
38,67
41,72
45,80
46,91
49,106
50,111
51,119
51,115
50,122
50,120
50,118
47,102
47,92
47,87
49,68
54,59
59,44
67,41
74,37
82,33
84,32
79,30
78,30
74,30
60,29
53,30
46,31
45,31
44,32
44,32
43,32
42,33
42,32
40,32
39,32
40,33
38,32
38,32
37,31
37,31
37,30
37,30
37,29
32,28
32,29
32,29
31,31
31,32
31,35
32,37
33,40
36,47
38,53
40,58
41,62
44,66
49,73
54,76
56,82
57,88
55,91
52,88
48,84
42,70
41,66
41,56
51,40
61,35
79,32
90,32
98,31
99,31
95,31
91,31
85,31
71,30
69,30
66,29
62,29
62,29
54,28
50,28
51,27
47,28
45,28
45,28
44,27
44,28
42,27
40,27
40,27
40,27
40,27
36,29
35,30
37,33
38,34
38,36
38,40
38,46
41,60
41,67
44,72
48,86
49,98
54,105
53,108
53,105
51,98
50,88
48,70
47,63
51,47
50,42
70,37
78,35
86,34
106,34
118,33
117,32
109,32
102,31
88,30
77,30
55,29
53,29
50,29
46,28
46,28
45,28
46,28
45,29
42,29
42,29
40,29
39,28
39,28
36,28
38,28
38,27
38,28
36,28
37,27
34,36
36,41
36,45
38,56
38,59
40,75
40,86
44,95
48,120
49,122
50,127
51,129
52,125
50,112
48,91
45,76
45,68
46,63
47,50
51,47
56,42
57,40
58,40
59,37
57,35
55,34
53,33
50,32
47,31
48,31
45,32
42,31
41,31
40,30
42,30
42,30
42,30
42,30
43,29
44,29
44,29
44,29
43,28
44,28
44,28
41,28
41,28
41,29
40,29
38,29
37,45
37,49
39,56
39,66
39,68
41,81
44,87
46,102
50,117
51,120
51,124
49,120
50,111
48,87
48,83
50,58
55,46
66,41
73,40
78,41
90,39
94,38
98,36
95,35
97,34
84,32
76,31
64,30
61,30
55,29
49,28
48,28
47,28
47,27
45,27
44,27
40,27
41,27
41,27
41,28
40,28
38,28
39,28
40,29
38,29
37,29
37,28
37,28
38,28
36,28
30,27
31,27
31,27
32,28
33,29
33,31
33,32
32,32
31,34
31,34
32,35
33,36
34,40
36,49
38,57
43,67
47,70
48,75
52,86
55,100
58,107
57,113
59,117
57,125
55,119
54,99
57,97
64,81
77,62
80,54
92,45
95,44
95,41
88,38
85,36
78,34
74,33
70,31
68,30
65,30
61,29
58,29
54,29
49,29
46,28
41,27
39,28
36,28
38,28
37,28
30,27
30,27
31,27
32,27
32,27
32,28
33,29
33,30
33,31
33,32
32,34
33,40
33,44
35,51
35,54
36,58
40,65
42,72
45,79
47,83
48,88
50,95
48,96
48,95
46,91
45,90
44,78
45,70
53,63
56,55
61,49
72,41
74,38
78,35
75,33
74,32
71,32
66,30
59,30
55,29
55,29
50,28
51,28
47,28
46,27
46,27
43,27
43,28
40,27
40,27
38,27
37,27
36,27
35,27
35,28
35,32
35,35
36,41
37,42
37,45
40,55
41,60
45,74
46,79
53,87
55,97
55,97
55,105
55,103
53,97
49,92
50,87
55,70
57,58
68,44
72,38
76,37
78,36
78,35
72,33
64,32
59,30
50,29
48,27
44,27
42,27
42,27
41,27
41,27
41,27
40,27
40,26
39,27
40,27
39,27
39,27
40,27
40,27
40,27
40,27
32,27
31,26
31,27
30,27
31,28
33,29
33,30
33,30
33,31
34,32
33,34
32,34
31,35
31,38
30,38
30,40
31,44
31,45
35,50
38,53
42,61
43,66
48,74
51,80
52,89
51,93
51,95
53,85
52,81
63,67
67,63
83,48
86,42
89,40
90,37
84,36
75,31
63,30
56,29
49,28
48,27
44,27
42,28
42,28
43,28
42,28
40,27
40,27
40,27
42,27
32,35
33,35
32,36
32,39
32,40
34,42
36,45
36,49
39,56
40,65
42,65
46,74
47,78
51,88
52,97
54,100
53,105
53,101
48,91
47,80
49,63
52,58
56,49
70,41
77,40
86,40
86,39
86,38
78,35
73,34
63,30
61,30
57,30
54,30
52,29
49,29
49,28
46,28
40,28
40,28
41,28
40,27
40,27
36,27
37,27
38,26
38,27
37,26
36,26
37,26
34,26
34,26
36,27
36,26
35,26
35,26
35,26
33,26
32,26
32,26
33,27
32,27
32,27
32,28
32,28
32,29
32,29
33,30
34,31
34,32
34,34
34,34
36,38
36,40
35,47
37,52
38,55
40,65
40,66
44,75
46,77
49,78
51,80
51,80
49,73
49,68
48,63
50,54
52,49
60,40
64,39
72,38
72,37
69,36
67,32
62,30
56,28
51,27
45,27
45,27
38,49
40,64
43,74
49,89
51,93
52,99
52,106
53,104
51,91
48,87
47,76
48,64
51,53
58,45
62,40
65,39
74,36
73,36
74,34
71,33
66,32
59,31
55,30
49,29
45,29
44,29
48,28
49,28
48,27
47,27
45,27
46,27
43,28
40,27
40,27
41,27
42,27
41,27
40,27
40,27
38,27
37,27
38,27
37,27
36,27
34,27
33,27
33,27
33,27
32,27
34,29
36,31
36,31
37,31
36,32
36,32
37,31
37,31
36,31
36,32
36,32
35,34
34,35
34,38
34,38
35,40
37,46
39,51
42,59
44,66
45,76
46,91
48,102
51,111
51,112
53,113
51,103
51,96
52,76
52,68
52,57
53,45
59,42
67,35
69,32
67,31
65,30
62,30
55,29
53,29
46,29
42,28
41,28
40,28
40,28
39,28
41,28
41,28
40,28
40,28
30,29
31,30
31,31
32,33
34,35
34,36
35,40
36,40
36,44
36,45
36,46
37,54
39,59
40,68
40,71
42,77
48,87
50,86
52,90
51,87
51,87
49,76
47,74
50,62
51,54
58,48
63,41
63,40
64,37
60,35
55,34
45,32
43,29
40,27
40,27
40,27
42,27
44,27
44,27
45,27
45,27
47,28
45,28
46,28
46,28
44,27
42,27
39,27
38,27
35,27
33,27
33,27
33,26
32,27
32,27
33,28
33,28
34,29
35,30
35,30
35,33
35,34
34,34
34,35
34,36
34,37
34,37
34,39
35,46
36,51
40,58
43,64
47,71
49,78
49,78
49,79
48,78
46,69
45,67
47,62
50,50
52,42
56,37
59,37
58,37
62,35
61,33
60,32
56,32
55,32
54,30
52,30
48,29
46,28
45,28
47,28
48,27
45,28
42,28
42,27
33,27
33,27
33,27
31,27
30,27
30,28
30,29
30,31
31,33
31,34
32,36
33,35
33,37
33,38
33,38
33,38
32,40
33,41
34,46
34,49
36,52
40,59
41,66
45,75
46,80
48,84
50,90
49,93
47,94
46,93
46,89
45,80
48,75
53,62
57,57
59,51
63,44
63,40
65,34
61,33
59,32
54,31
52,30
50,29
47,28
46,29
48,28
47,28
48,28
48,28
33,29
34,30
33,31
33,33
32,34
32,35
31,38
31,40
31,44
32,47
32,50
34,60
35,64
37,71
40,73
42,76
49,86
51,91
56,100
56,104
56,104
53,103
50,97
48,77
47,70
49,57
58,43
61,39
72,33
79,32
82,31
85,31
83,30
80,30
76,31
69,30
61,30
55,30
52,29
49,29
48,28
49,27
46,28
42,27
41,27
40,27
41,27
41,27
43,27
44,27
32,27
31,28
32,29
31,30
31,32
31,33
32,34
32,35
31,37
31,37
31,37
31,39
32,42
32,44
34,46
37,49
39,52
40,55
41,55
41,60
47,65
48,67
50,69
47,65
47,64
51,55
53,52
52,47
57,40
72,40
82,38
85,37
83,36
82,34
81,33
65,31
65,31
60,31
57,30
55,30
52,29
50,29
51,28
46,27
46,27
47,27
47,27
46,27
45,27
46,27
34,39
34,39
34,40
35,41
37,43
40,49
40,54
41,55
44,57
45,60
48,61
48,61
48,62
51,60
51,60
49,59
48,59
45,59
43,51
42,48
40,43
40,42
45,39
50,36
55,35
65,35
72,34
76,33
75,33
72,33
70,32
67,32
61,32
58,32
56,31
53,30
51,30
46,29
47,28
46,28
48,27
49,27
51,27
50,27
49,27
49,27
48,27
46,28
44,28
43,28
36,40
37,40
37,41
37,49
39,52
42,67
44,78
45,86
47,97
49,104
52,109
51,102
50,100
48,80
47,74
49,56
51,49
53,43
64,39
69,39
78,38
82,37
81,37
80,36
79,35
69,34
66,32
64,33
58,32
56,31
52,30
50,30
50,30
45,30
45,29
46,29
46,28
45,28
46,27
47,27
46,27
44,27
43,27
43,27
43,27
42,27
43,27
43,27
43,27
44,27
30,32
31,33
31,36
31,37
33,42
33,43
36,48
36,50
38,54
43,62
44,69
47,75
48,78
53,87
54,85
54,87
51,77
50,73
47,60
49,55
50,49
60,43
67,42
79,39
90,40
93,39
95,38
91,36
83,34
82,34
75,32
66,31
61,31
61,32
58,31
56,31
52,31
52,31
48,30
47,30
46,29
48,29
47,29
46,29
45,29
43,29
41,29
40,29
39,28
39,28
39,28
36,28
36,28
37,27
37,27
38,28
